# # t F(afterglowpy) F(our) | flux in mJy, time in days
1.000000000000000000e+04 1.371462036502601505e-08 1.453890698106070861e-06
1.031283160672184749e+04 1.701241249101298493e-08 1.609016653286043793e-06
1.063544957486011117e+04 2.110284159807832004e-08 1.782062189630049375e-06
1.096816005273138035e+04 2.617636351717811670e-08 1.975364478844096144e-06
1.131127876593921428e+04 3.246912814720463056e-08 2.191611644825644733e-06
1.166513131698196230e+04 4.027377798625529816e-08 2.433872473151424179e-06
1.203005349423324151e+04 4.995345090392843673e-08 2.705672460399888738e-06
1.240639159058831865e+04 6.195809288556314679e-08 3.011123608163139755e-06
1.279450273207873397e+04 7.684552122510258730e-08 3.354993402679073997e-06
1.319475521676706012e+04 9.530756615814238414e-08 3.742825459196989903e-06
1.360752886424333155e+04 1.182011165679941933e-07 4.181050165119778973e-06
1.403321537605484627e+04 1.465887019601739345e-07 4.677197035325959690e-06
1.447221870741134444e+04 1.817872120327873615e-07 5.240031538578097093e-06
1.492495545051829140e+04 2.254274069610937567e-07 5.879867108446221119e-06
1.539185522990205391e+04 2.795312130073391387e-07 6.608795262674412831e-06
1.587336111010208697e+04 3.466027062288808646e-07 7.440961226657694138e-06
1.636993001611701948e+04 4.297424034487713073e-07 8.393074187219258517e-06
1.688203316700362848e+04 5.327928917771391237e-07 9.485024661155279160e-06
1.741015652304015384e+04 6.605092538578896530e-07 1.074015114222415891e-05
1.795480124687830539e+04 8.187787425943144930e-07 1.218600883669048703e-05
1.851648417912154036e+04 1.014891412158084503e-06 1.385566460167318619e-05
1.909573832878096800e+04 1.257862117492618446e-06 1.578797360643317905e-05
1.969311337907421694e+04 1.558848066020041949e-06 1.802934125398970288e-05
2.030917620904734940e+04 1.931649342133562178e-06 2.063516337642631797e-05
2.094451143151468932e+04 2.393320476967490534e-06 2.367065604264011953e-05
2.159972194782717270e+04 2.964949458617272537e-06 2.721477086228595775e-05
2.227542951999556317e+04 3.672591419154654344e-06 3.136066333034252915e-05
2.297227536071151189e+04 4.548411309476548981e-06 3.622009705207106668e-05
2.369092074182632132e+04 5.632136767485714849e-06 4.192761583172773535e-05
2.443204762186486914e+04 6.972782543678676956e-06 4.864229427460641154e-05
2.519635929317013506e+04 8.630775448767959352e-06 5.655467631368987352e-05
2.598458104929247202e+04 1.068063473542487106e-05 6.589414001323869055e-05
2.679746087325689587e+04 1.321412320386575220e-05 7.693333992134800375e-05
2.763577014736157435e+04 1.634419252529382475e-05 9.000101722543069798e-05
2.850030438518105075e+04 2.020981655750977223e-05 1.054892323853061267e-04
2.939188398646884161e+04 2.498172866783885310e-05 1.238638084703747564e-04
3.031135501567576284e+04 3.086968391186871869e-05 1.456850691908462205e-04
3.125959000482277770e+04 3.813089026166942665e-05 1.716212621602802217e-04
3.223748878149026859e+04 4.708059872882351503e-05 2.024708880489523315e-04
3.324597932270938327e+04 5.810466850350848843e-05 2.391886534875868392e-04
3.428601863556582975e+04 7.167487876487846983e-05 2.828931800470909958e-04
3.535859366535175650e+04 8.836718029423618135e-05 3.349380672892305678e-04
3.646472223212745303e+04 1.088835951481370655e-04 3.969102183857107125e-04
3.760545399658168026e+04 1.340786143503623433e-04 4.707130489659338917e-04
3.878187145610719745e+04 1.649902801929166430e-04 5.585791050331978709e-04
3.999509097203669808e+04 2.028778325674446086e-04 6.631258942564467566e-04
4.124626382901347824e+04 2.492646481886474138e-04 7.874710884901403281e-04
4.253657732750391733e+04 3.059906551593184146e-04 9.352372913455853564e-04
4.386725591048494243e+04 3.752719010500640893e-04 1.110706132864664299e-03
4.523956232538058248e+04 4.597717474911945244e-04 1.318823763411306393e-03
4.665479882234468096e+04 5.626804313584231288e-04 1.565307214468663038e-03
4.811430839003264555e+04 6.878098176525304815e-04 1.856860644128848457e-03
4.961947603002897813e+04 8.396993716342884048e-04 2.201167513928195107e-03
5.117173007114609936e+04 1.023735825649535729e-03 2.607089020074708323e-03
5.277254352483532421e+04 1.246288651319319351e-03 3.084746399899189039e-03
5.442343548300272232e+04 1.514860145444707094e-03 3.645594311081175407e-03
5.612597255954965658e+04 1.838252964850641295e-03 4.302476403098541916e-03
5.788177037701279914e+04 2.226740256148610191e-03 5.070031707547677582e-03
5.969249509970739746e+04 2.692265903021029156e-03 5.964649361805806488e-03
6.155986501483514439e+04 3.248648303051149960e-03 7.004718847768862978e-03
6.348565216305223294e+04 3.911782655105637205e-03 8.210368226435369593e-03
6.547168402004743257e+04 4.699855713274299178e-03 9.603582859257695642e-03
6.751984523072508455e+04 5.633567717262551351e-03 1.120835204169441483e-02
6.963207939763889590e+04 6.736333893419638348e-03 1.305141541399276392e-02
7.181039092537356191e+04 8.034468489039414338e-03 1.516118905060741782e-02
7.405684692262441968e+04 9.557362461744864368e-03 1.756748680538321519e-02
7.637357916378027585e+04 1.133763495678140679e-02 2.030288865171574197e-02
7.876278611187063507e+04 1.341043936530853138e-02 2.340211857422015360e-02
8.122673500479719951e+04 1.581633110651972998e-02 2.690144546375034321e-02
8.376776400682923850e+04 1.859836116740628056e-02 3.083661002551310246e-02
8.638828442740453465e+04 2.180186399415466603e-02 3.524881849734783079e-02
8.909078300934142317e+04 2.547613598238005275e-02 4.017853971649087280e-02
9.187782428863340465e+04 2.967146696810108938e-02 4.566347673065247748e-02
9.475205302806547843e+04 3.444761051483717640e-02 5.175027561908795287e-02
9.771619672696181806e+04 3.986076623730562540e-02 5.847783836133541024e-02
1.007730682094461808e+05 4.597115902150931271e-02 6.589062538196838181e-02
1.039255682936713129e+05 5.284118880738566948e-02 7.403488271998553971e-02
1.071766885445503431e+05 6.053482266138841827e-02 8.294456520938996158e-02
1.105295141126022063e+05 6.906496202037293308e-02 9.267061794603204117e-02
1.139872266616052511e+05 7.865379001769300105e-02 1.032485624810090263e-01
1.175531073878369934e+05 8.932053657270355718e-02 1.147290092848879950e-01
1.212305401337652875e+05 1.008452868260321794e-01 1.271418650776172388e-01
1.250230145991455938e+05 1.136514165229289830e-01 1.405397146974848299e-01
1.289341296525715734e+05 1.276642195224845511e-01 1.549396130042125508e-01
1.329675967466212751e+05 1.429551730191579439e-01 1.704038365634649721e-01
1.371272434398400947e+05 1.595847044170269347e-01 1.869561892813200177e-01
1.414170170289023954e+05 1.776211108902675251e-01 2.046360372762437430e-01
1.458409882943986449e+05 1.971132120111105390e-01 2.234645090388396316e-01
1.504033553638025187e+05 2.181197362978078425e-01 2.435060999650366653e-01
1.551084476952840632e+05 2.406940036162120711e-01 2.647594619316216424e-01
1.599607301861487795e+05 2.648869594349246293e-01 2.872677947293877931e-01
1.649648074098020734e+05 2.907469878232384342e-01 3.110784034441522738e-01
1.701254279852589243e+05 3.183200187278160120e-01 3.361849310907439325e-01
1.754474890833459795e+05 3.476494163701788209e-01 3.626496200874324005e-01
1.809360410738716600e+05 3.787763752180409171e-01 3.904864582533712491e-01
1.865962923181745864e+05 4.117394205477036273e-01 4.197064664451760074e-01
1.924336141115979990e+05 4.465749473511625434e-01 4.503640866398331277e-01
1.984535457805803162e+05 4.833172497877034623e-01 4.824671264135194648e-01
2.046617999391989724e+05 5.219981920371988826e-01 5.160117836724547047e-01
2.110642679101554677e+05 5.626710158617983515e-01 5.510870618171841429e-01
2.176670253153459053e+05 6.052955738631918825e-01 5.876451303894435485e-01
2.244763378413223836e+05 6.499670322954436141e-01 6.257177060938493574e-01
2.314986671851160936e+05 6.966876039039636703e-01 6.653688843075655779e-01
2.387406771860647132e+05 7.454809122862690041e-01 7.066092848719532915e-01
2.462092401494625374e+05 7.963719917694065398e-01 7.494241189190716801e-01
2.539114433680346992e+05 8.493744731304445628e-01 7.938686208961424073e-01
2.618545958474232757e+05 9.045160933506097845e-01 8.400177476253072317e-01
2.700462352420681855e+05 9.618147377566350631e-01 8.877950555423756995e-01
2.784941350080644479e+05 1.021286726863117389e+00 9.372287099088718598e-01
2.872063117797828163e+05 1.082949208878956293e+00 9.884091142769774185e-01
2.961910329772553523e+05 1.146821109089949386e+00 1.041353502269729558e+00
3.054568246515431674e+05 1.212976148456714087e+00 1.095978749656830953e+00
3.150124795755327796e+05 1.281363507890176612e+00 1.152328395790374937e+00
3.248670655878374819e+05 1.351849629020861698e+00 1.210503253314031857e+00
3.350299341977229924e+05 1.424715379359499101e+00 1.270455233571466280e+00
3.455107294592218241e+05 1.499867195431386691e+00 1.332133875596434258e+00
3.563193971228583832e+05 1.577319517630914936e+00 1.395623816116811744e+00
3.674661940736687975e+05 1.657086662654050579e+00 1.461039364948711228e+00
3.789616980644715950e+05 1.739182320740467969e+00 1.528440698622626881e+00
3.908168177536264411e+05 1.823620603026177456e+00 1.597683263871962689e+00
4.030428030568050453e+05 1.910415831691345323e+00 1.668795470278227944e+00
4.156512558225988178e+05 1.999582278723744500e+00 1.741855397585478471e+00
4.286541408420925145e+05 2.091132344371323004e+00 1.817017515013798379e+00
4.420637972028530203e+05 2.185074909163092105e+00 1.894199755768784632e+00
4.558929499981059344e+05 2.281429773198770938e+00 1.973265074819498421e+00
4.701547224022129667e+05 2.380206383586607632e+00 2.054232738113280110e+00
4.848626481239077984e+05 2.481422466444666686e+00 2.137136831275657567e+00
5.000306842491090065e+05 2.585087600306319455e+00 2.222178165291547991e+00
5.156732244854963501e+05 2.691219002437532204e+00 2.309334494666615445e+00
5.318051128214197233e+05 2.799827126285625134e+00 2.398485058732160446e+00
5.484416576121015241e+05 2.910925510485617096e+00 2.489684138334404384e+00
5.655986461065001786e+05 3.024993047323537354e+00 2.583077419576144784e+00
5.832923594286199659e+05 3.142388334967775698e+00 2.678873200673201005e+00
6.015395880274833180e+05 3.263427744448144097e+00 2.776976706706934195e+00
6.203576476104268804e+05 3.388341131034176446e+00 2.877162047248135401e+00
6.397643955748423468e+05 3.517356853115021664e+00 2.979444312461373645e+00
6.597782479539533379e+05 3.650309165667370959e+00 3.083907248281164026e+00
6.804181968927093549e+05 3.787864716667399989e+00 3.190714370625781449e+00
7.017038286703822669e+05 3.929949598560158019e+00 3.299793794259127999e+00
7.236553422869649949e+05 4.076379950608913560e+00 3.410966033017762022e+00
7.462935686310129240e+05 4.227328960996416640e+00 3.524290170154295687e+00
7.696399902471150272e+05 4.383896019368185293e+00 3.639831653344903550e+00
7.937167617217558436e+05 4.544387577271090883e+00 3.757755355979439660e+00
8.185467307069021044e+05 4.707722685483915370e+00 3.878296917302237912e+00
8.441534596012993716e+05 4.877310802340365292e+00 4.001511875215590486e+00
8.705612479099855991e+05 5.051656288808939799e+00 4.125764284488066203e+00
8.977951553033331875e+05 5.224432796548483360e+00 4.249418480622410677e+00
9.258810253973945510e+05 5.386485829890055754e+00 4.371138510530015786e+00
9.548455102782303002e+05 5.542717335602115547e+00 4.489574895064183835e+00
9.847160957933764439e+05 5.683511756426955941e+00 4.603458153947339149e+00
1.015521127634569188e+06 5.814273397866914550e+00 4.711688373127642215e+00
1.047289838236357435e+06 5.932769316568490048e+00 4.811499301267202711e+00
1.080052374516254058e+06 6.039937984614025090e+00 4.899901782327551913e+00
1.113839826482618228e+06 6.129876506293777005e+00 4.975682743188717616e+00
1.148684256737554679e+06 6.210441033283674805e+00 5.038298113470839112e+00
1.184618730902682291e+06 6.275950354356672811e+00 5.087635286117729194e+00
1.221677348996793153e+06 6.326239733579382296e+00 5.123783560398051051e+00
1.259895277795025846e+06 6.363631433883708333e+00 5.146984824238612255e+00
1.299308784200417111e+06 6.388232048808630381e+00 5.157150824793978572e+00
1.339955269659337122e+06 6.400056825578066544e+00 5.154258893162764643e+00
1.381873305653633550e+06 6.398195671568465137e+00 5.136241442033025351e+00
1.425102670302996412e+06 6.389335194107204074e+00 5.101016566177101197e+00
1.469684386112447362e+06 6.363961245138127332e+00 5.057699784614596794e+00
1.515660758900601184e+06 6.328477871561986490e+00 5.004999029020283707e+00
1.563075417945817346e+06 6.280898480426857056e+00 4.943441819942766990e+00
1.611973357388155535e+06 6.229679533192083341e+00 4.873302970227205044e+00
1.662400978926613461e+06 6.163285718494059040e+00 4.794950355586618862e+00
1.714406135851968545e+06 6.095519018383889431e+00 4.708888242354714038e+00
1.768038178457208676e+06 6.011981461279439110e+00 4.615559303168166316e+00
1.823348000868438510e+06 5.919943056079876698e+00 4.515315403537091932e+00
1.880388089340916602e+06 5.824119090077694239e+00 4.408607007614691931e+00
1.939212572065826971e+06 5.719846381579733574e+00 4.296884269531632938e+00
1.999877270535286982e+06 5.607884600338742587e+00 4.181377083985310605e+00
2.062439752514088526e+06 5.494490317644384447e+00 4.063236700189403194e+00
2.126959386668691877e+06 5.371166329556555041e+00 3.941988535687686479e+00
2.193497398905055597e+06 5.244878718335679757e+00 3.816193861852581026e+00
2.262116930469026323e+06 5.115511594708036291e+00 3.686327366407317729e+00
2.332883097864153329e+06 4.982309009244861642e+00 3.553636287478952660e+00
2.405863054644066840e+06 4.842942443440391820e+00 3.419114121703295872e+00
2.481126055137765128e+06 4.700334875570311155e+00 3.283163118998642549e+00
2.558743520168588962e+06 4.556384224516300208e+00 3.145893242829352232e+00
2.638789104828934651e+06 4.409038582811804829e+00 3.007482178583809063e+00
2.721338768375308719e+06 4.260094751167982530e+00 2.868207888181448340e+00
2.806470846309838817e+06 4.109173179181154545e+00 2.728584510996864942e+00
2.894266124716751743e+06 3.955043533982215198e+00 2.589513647188680601e+00
2.984807916924327612e+06 3.802439536446693413e+00 2.452821303445041234e+00
3.078182142565079965e+06 3.647763172212040050e+00 2.318162067278263905e+00
3.174477409109193366e+06 3.491683108966627813e+00 2.186399382665043856e+00
3.273785095948576927e+06 3.333255202880033519e+00 2.059224274997373705e+00
3.376199441111340187e+06 3.176869383589488560e+00 1.937174647276362682e+00
3.481817630688966252e+06 3.021025890299679162e+00 1.820680072830535012e+00
3.590739891061055008e+06 2.863598460567335913e+00 1.709722414838737325e+00
3.703069584005141165e+06 2.706733117251728604e+00 1.604295209885365114e+00
3.818913304781854153e+06 2.551022544199807118e+00 1.504305703547775819e+00
3.938380983288488816e+06 2.395871261905441862e+00 1.409683850061456356e+00
4.061585988376979716e+06 2.241988209741362592e+00 1.320420192178294538e+00
4.188645235435271170e+06 2.090529731753956622e+00 1.236465807373517523e+00
4.319679297334173694e+06 1.941470998067723386e+00 1.158174354642886872e+00
4.454812518844988197e+06 1.796132373978428953e+00 1.084282163355094530e+00
4.594173134636476636e+06 1.654190450361781695e+00 1.014585479408109725e+00
4.737893390963143669e+06 1.518211781104993552e+00 9.490086321597308583e-01
4.886109671160326339e+06 1.388152959734536562e+00 8.873114774960978446e-01
5.038962625065150671e+06 1.268355278453496160e+00 8.292801351137826238e-01
5.196597302486197092e+06 1.156658976941191019e+00 7.748325185279696381e-01
5.359163290848514996e+06 1.055278224529163644e+00 7.237864623446583767e-01
5.526814857144603506e+06 9.604109553447501835e-01 6.758943381665251104e-01
5.699711094326075166e+06 8.745065350552352346e-01 6.310065245752475294e-01
5.878016072274912149e+06 7.956908355736065364e-01 5.890635493255369504e-01
6.061898993497571908e+06 7.242118280420294374e-01 5.501719483327062177e-01
6.251534353689711541e+06 6.588575672018670559e-01 5.140661853980947882e-01
6.447102107323869132e+06 5.992408454462972989e-01 4.802049637833865070e-01
6.648787838417262770e+06 5.449266637870554542e-01 4.485123128624413091e-01
6.856782936641737819e+06 4.958530042812369087e-01 4.188667679047120007e-01
7.071284778942996636e+06 4.510392247324871429e-01 3.911260822116641722e-01
7.292496916841444559e+06 4.104033699628135690e-01 3.651564047755712084e-01
7.520629269592407160e+06 3.736063699823363726e-01 3.408522736971374978e-01
7.755898323389001191e+06 3.402251879818795621e-01 3.181412470195869036e-01
7.998527336796708405e+06 3.104964233869673684e-01 2.969081548950566196e-01
8.248746552614580840e+06 2.830921500722548001e-01 2.770410022258453231e-01
8.506793416364153847e+06 2.584471888023190944e-01 2.584561721091637732e-01
8.772912801613356918e+06 2.361017735055868927e-01 2.412942183345913039e-01
9.047357242349293083e+06 2.157388363454754154e-01 2.254213348731466393e-01
9.330387172620359808e+06 1.971931396892697974e-01 2.106041201409649122e-01
9.622271173675134778e+06 1.803791497286117984e-01 1.967618363398773440e-01
9.923286228832544759e+06 1.650682158931948973e-01 1.838183614323912196e-01
1.023371798632519133e+07 1.514070627872552421e-01 1.717054888337938290e-01
1.055386103036523052e+07 1.386377656891013277e-01 1.603666521879664464e-01
1.088401916069005430e+07 1.271018393987780604e-01 1.497530962502280905e-01
1.122450568085305952e+07 1.166119313252572814e-01 1.398121785074972756e-01
1.157564369553303532e+07 1.070432055903810104e-01 1.305211272429024905e-01
1.193776641714435816e+07 9.830057274705698844e-02 1.218623292515700063e-01
1.231121748203892075e+07 9.033951125487577061e-02 1.137881122838309139e-01
1.269635127659972757e+07 8.315586541742228666e-02 1.062975766664444183e-01
1.309353327353612147e+07 7.642102568773677385e-02 9.941451677859594604e-02
1.350314037869872153e+07 7.050430506795089813e-02 9.296688238615240241e-02
1.392556128874464706e+07 6.484089406693895052e-02 8.692025470670899923e-02
1.436119685999077372e+07 5.982884004695818853e-02 8.124223272088154646e-02
1.481046048880676925e+07 5.525696134355810585e-02 7.592891635044986265e-02
1.527377850390712358e+07 5.094752220151111538e-02 7.098448921447882143e-02
1.575159057091624476e+07 4.707071913931078211e-02 6.637441189853413026e-02
1.624435010958865471e+07 4.355117776910420735e-02 6.207143937099097314e-02
1.675252472408217192e+07 4.029773743798294866e-02 5.804948631472302278e-02
1.727659664669034630e+07 3.728986694064741897e-02 5.428305041226464539e-02
1.781706319545732439e+07 3.453436345270712721e-02 5.074727199729029553e-02
1.837443724610724673e+07 3.199997014218795843e-02 4.741751070428474463e-02
1.894924771873823553e+07 2.967855334019504909e-02 4.432893205058973524e-02
1.954204007974051312e+07 2.753780539096535585e-02 4.149643201223169459e-02
2.015337685941735283e+07 2.558462968593857093e-02 3.886268619400750496e-02
2.078383818579755351e+07 2.377766662390251584e-02 3.640880367766501785e-02
2.143402233514858782e+07 2.206501466884284307e-02 3.411504807789440818e-02
2.210454629971019179e+07 2.055240702131944791e-02 3.196088124756759491e-02
2.279604637318982184e+07 1.912689809697320012e-02 2.992131616162464064e-02
2.350917875457284227e+07 1.783047275636100854e-02 2.798381652145625134e-02
2.424462017082330585e+07 1.661082215004722196e-02 2.618597389478520901e-02
2.500306851906321198e+07 1.549285752787832315e-02 2.452561231874337763e-02
2.578524352884276584e+07 1.444310878513149765e-02 2.298773861889398182e-02
2.659188744512690976e+07 1.348759641004910331e-02 2.155531165267768334e-02
2.742376573264952376e+07 1.258764221515320386e-02 2.020871723050063004e-02
2.828166780230029300e+07 1.175425054774872219e-02 1.892279115656787802e-02
2.916640776023706794e+07 1.097937200264121824e-02 1.770906971996012366e-02
3.007882518043095991e+07 1.028201325464522461e-02 1.659189758579320342e-02
3.101978590138100088e+07 9.612686056379680932e-03 1.556813155868933506e-02
3.199018284775060788e+07 9.001398488742663392e-03 1.462522109775728045e-02
3.299093687770942599e+07 8.432879348590096788e-03 1.374748048230000838e-02
3.402299765678064525e+07 7.901437632446052864e-03 1.291292549239939774e-02
