# # t F(afterglowpy) F(our) | flux in mJy, time in days
1.000000000000000000e+04 5.650304955140691497e-09 5.343365905121112997e-08
1.031283160672184749e+04 6.528539865230814407e-09 5.877666931450424110e-08
1.063544957486011117e+04 7.543080106064429169e-09 6.467006626057218697e-08
1.096816005273138035e+04 8.715044679005993900e-09 7.117330806144705592e-08
1.131127876593921428e+04 1.006880472653682389e-08 7.835319334113494803e-08
1.166513131698196230e+04 1.163245665238961429e-08 8.628427239688376022e-08
1.203005349423324151e+04 1.343847803736794485e-08 9.504865094190828107e-08
1.240639159058831865e+04 1.552429367481369359e-08 1.047401751096326752e-07
1.279450273207873397e+04 1.793308512671614195e-08 1.154605241718828749e-07
1.319475521676706012e+04 2.071470890715162033e-08 1.273265580539786542e-07
1.360752886424333155e+04 2.392657305632428564e-08 1.404694438366094700e-07
1.403321537605484627e+04 2.763493989953619784e-08 1.550346367391756509e-07
1.447221870741134444e+04 3.191619946527447658e-08 1.711878471608161516e-07
1.492495545051829140e+04 3.685828048131173670e-08 1.891197299917141272e-07
1.539185522990205391e+04 4.256264326380007746e-08 2.090343259138088214e-07
1.587336111010208697e+04 4.914607128197732269e-08 2.311660039074315889e-07
1.636993001611701948e+04 5.674295248642398127e-08 2.557844537150669989e-07
1.688203316700362848e+04 6.550820449149264661e-08 2.831859480502692899e-07
1.741015652304015384e+04 7.561984688928706213e-08 3.136953235993150231e-07
1.795480124687830539e+04 8.728269468802580797e-08 3.476905974706178122e-07
1.851648417912154036e+04 1.007324108940538339e-07 3.855985881700668236e-07
1.909573832878096800e+04 1.162394088915363731e-07 4.278781725262611766e-07
1.969311337907421694e+04 1.341145485675989303e-07 4.750902106887218230e-07
2.030917620904734940e+04 1.547146418931620050e-07 5.278513771430960229e-07
2.094451143151468932e+04 1.784485919569315123e-07 5.868075192633196717e-07
2.159972194782717270e+04 2.057855154766327995e-07 6.527505666927188507e-07
2.227542951999556317e+04 2.372626334593503784e-07 7.265039026217667785e-07
2.297227536071151189e+04 2.734941978545601323e-07 8.089723490881945212e-07
2.369092074182632132e+04 3.151832164296373058e-07 9.012186701860431757e-07
2.443204762186486914e+04 3.631322751613331913e-07 1.004453280756078772e-06
2.519635929317013506e+04 4.182563896399561737e-07 1.119975353941767579e-06
2.598458104929247202e+04 4.815993194007408587e-07 1.249234505620266935e-06
2.679746087325689587e+04 5.543477525797517361e-07 1.393908767270757939e-06
2.763577014736157435e+04 6.378500093283868290e-07 1.555801920279697874e-06
2.850030438518105075e+04 7.336364969832291665e-07 1.737070561625681744e-06
2.939188398646884161e+04 8.434384868617094883e-07 1.940117941675451634e-06
3.031135501567576284e+04 9.692145776208783411e-07 2.167371127012360510e-06
3.125959000482277770e+04 1.113171478540523563e-06 2.421701460008586203e-06
3.223748878149026859e+04 1.277792710387125707e-06 2.705923662840298899e-06
3.324597932270938327e+04 1.465864685612127973e-06 3.023594434507407122e-06
3.428601863556582975e+04 1.680505897842652884e-06 3.378352496965263680e-06
3.535859366535175650e+04 1.925194709181511092e-06 3.774112206070759458e-06
3.646472223212745303e+04 2.203796114226457289e-06 4.214986351463418949e-06
3.760545399658168026e+04 2.520591119173706264e-06 4.705511941269809746e-06
3.878187145610719745e+04 2.880298978869093578e-06 5.250704727016398844e-06
3.999509097203669808e+04 3.288103868489781096e-06 5.855958376645832255e-06
4.124626382901347824e+04 3.749661399766999471e-06 6.526624261192844128e-06
4.253657732750391733e+04 4.271116270737914360e-06 7.268189755871089034e-06
4.386725591048494243e+04 4.859094411119965213e-06 8.086401279759929448e-06
4.523956232538058248e+04 5.520700003582091676e-06 8.987798106471204705e-06
4.665479882234468096e+04 6.263475281141494156e-06 9.978121521849542548e-06
4.811430839003264555e+04 7.095369898385791043e-06 1.106362545535754526e-05
4.961947603002897813e+04 8.024674020816012696e-06 1.224992128591395389e-05
5.117173007114609936e+04 9.059928531028979236e-06 1.354290749241678260e-05
5.277254352483532421e+04 1.020981885783450550e-05 1.494838656711275531e-05
5.442343548300272232e+04 1.148303898502386459e-05 1.647219162935988952e-05
5.612597255954965658e+04 1.288813616507276194e-05 1.811793818345194958e-05
5.788177037701279914e+04 1.443328981244524905e-05 1.988918164475784461e-05
5.969249509970739746e+04 1.612515119378059812e-05 2.178657807877477787e-05
6.155986501483514439e+04 1.797200632535438420e-05 2.381333727281672444e-05
6.348565216305223294e+04 1.997997589729123391e-05 2.597018643812704574e-05
6.547168402004743257e+04 2.215286066129937748e-05 2.825719999039253330e-05
6.751984523072508455e+04 2.449102091525324630e-05 3.067029033243219788e-05
6.963207939763889590e+04 2.699993920560243382e-05 3.320583424774389570e-05
7.181039092537356191e+04 2.967605839620434055e-05 3.585642910043777582e-05
7.405684692262441968e+04 3.251642334801037326e-05 3.861940921041308365e-05
7.637357916378027585e+04 3.551535644250433850e-05 4.148156742325504110e-05
7.876278611187063507e+04 3.866433105140066288e-05 4.443252819279302866e-05
8.122673500479719951e+04 4.194000669120002489e-05 4.746269954563403970e-05
8.376776400682923850e+04 4.535181534174320418e-05 5.056004400184619719e-05
8.638828442740453465e+04 4.889017194613808119e-05 5.371048657420227480e-05
8.909078300934142317e+04 5.250547864724074539e-05 5.689613097875988016e-05
9.187782428863340465e+04 5.619226978590703404e-05 6.010532703682016563e-05
9.475205302806547843e+04 5.992871131182817061e-05 6.332094941105251209e-05
9.771619672696181806e+04 6.369171234220045508e-05 6.652639380594468823e-05
1.007730682094461808e+05 6.745748216977658692e-05 6.970520866641681176e-05
1.039255682936713129e+05 7.120371976929194076e-05 7.284410059929611464e-05
1.071766885445503431e+05 7.490128919175649959e-05 7.592329566678837302e-05
1.105295141126022063e+05 7.852878142034750049e-05 7.893498645182247565e-05
1.139872266616052511e+05 8.206285447976202694e-05 8.185711749440621190e-05
1.175531073878369934e+05 8.548285706816358403e-05 8.468214769439935381e-05
1.212305401337652875e+05 8.876821027819099255e-05 8.739821069832557320e-05
1.250230145991455938e+05 9.190044972436314818e-05 8.999388381935700552e-05
1.289341296525715734e+05 9.486354666655591147e-05 9.246081732839354266e-05
1.329675967466212751e+05 9.764324223775618051e-05 9.478729609676339932e-05
1.371272434398400947e+05 1.002277835266064307e-04 9.696922623442627944e-05
1.414170170289023954e+05 1.026075851980980846e-04 9.900104454803989511e-05
1.458409882943986449e+05 1.047754031201682403e-04 1.008845397310054588e-04
1.504033553638025187e+05 1.067250537822114916e-04 1.026000421817070885e-04
1.551084476952840632e+05 1.084555228001222082e-04 1.041638407810294734e-04
1.599607301861487795e+05 1.099654088553760772e-04 1.055684423449043473e-04
1.649648074098020734e+05 1.112549074603220170e-04 1.068080689306521997e-04
1.701254279852589243e+05 1.123263566235984312e-04 1.078924653643974381e-04
1.754474890833459795e+05 1.131835008489425777e-04 1.088165817067350235e-04
1.809360410738716600e+05 1.138313750267208206e-04 1.095802726890883011e-04
1.865962923181745864e+05 1.142760891828292546e-04 1.101917836008665019e-04
1.924336141115979990e+05 1.145269408770128506e-04 1.106499000687348797e-04
1.984535457805803162e+05 1.145849765519354124e-04 1.109622501631537275e-04
2.046617999391989724e+05 1.144686616692229954e-04 1.111312096132806212e-04
2.110642679101554677e+05 1.141752318430939008e-04 1.111625431230123208e-04
2.176670253153459053e+05 1.137222572833677129e-04 1.110611648444194589e-04
2.244763378413223836e+05 1.131173799377837300e-04 1.108324289904548252e-04
2.314986671851160936e+05 1.123694440881211563e-04 1.104855883054456020e-04
2.387406771860647132e+05 1.114881643022932475e-04 1.100219499530415992e-04
2.462092401494625374e+05 1.104831085907510482e-04 1.094560368600526657e-04
2.539114433680346992e+05 1.093635696848462832e-04 1.087933455802768921e-04
2.618545958474232757e+05 1.081378641318008355e-04 1.080369225283539405e-04
2.700462352420681855e+05 1.068175647673860057e-04 1.071855674951519293e-04
2.784941350080644479e+05 1.054087202759806686e-04 1.062438055381817372e-04
2.872063117797828163e+05 1.039205790736535652e-04 1.052169887782730077e-04
2.961910329772553523e+05 1.023611948159515699e-04 1.041129380943694869e-04
3.054568246515431674e+05 1.007382048745346245e-04 1.029369677269734574e-04
3.150124795755327796e+05 9.905919488744980748e-05 1.016926413430798006e-04
3.248670655878374819e+05 9.733089937647398905e-05 1.003878254439288662e-04
3.350299341977229924e+05 9.556009736292074477e-05 9.902850252716532151e-05
3.455107294592218241e+05 9.375311077768638964e-05 9.761922647978417422e-05
3.563193971228583832e+05 9.191569541686309542e-05 9.616617297643162714e-05
3.674661940736687975e+05 9.005360111599314981e-05 9.468852017601762862e-05
3.789616980644715950e+05 8.817192796449844887e-05 9.318715011275732177e-05
3.908168177536264411e+05 8.627565259427666920e-05 9.164812518528924596e-05
4.030428030568050453e+05 8.436936678034863792e-05 9.007700347336166551e-05
4.156512558225988178e+05 8.244286248554033830e-05 8.847702206665962975e-05
4.286541408420925145e+05 8.052870834545864927e-05 8.685200824339732613e-05
4.420637972028530203e+05 7.861713573470859820e-05 8.520665002696722694e-05
4.558929499981059344e+05 7.671136713387614772e-05 8.354473819144217581e-05
4.701547224022129667e+05 7.481433127686690600e-05 8.186932375368129221e-05
4.848626481239077984e+05 7.292873324565377351e-05 8.018417820072850949e-05
5.000306842491090065e+05 7.105700045483109959e-05 7.849371208171983781e-05
5.156732244854963501e+05 6.920143636586053638e-05 7.680297420041837513e-05
5.318051128214197233e+05 6.736406248122931123e-05 7.512765545658908436e-05
5.484416576121015241e+05 6.554626714634321312e-05 7.346686370192844970e-05
5.655986461065001786e+05 6.375122148284377717e-05 7.180558992837295096e-05
5.832923594286199659e+05 6.197895635452443084e-05 7.014569012450650549e-05
6.015395880274833180e+05 6.023136758449712871e-05 6.848944333950382198e-05
6.203576476104268804e+05 5.850969778532248217e-05 6.683959304676722712e-05
6.397643955748423468e+05 5.681498934395099674e-05 6.519766322854320399e-05
6.597782479539533379e+05 5.514830331771593621e-05 6.356555519062051973e-05
6.804181968927093549e+05 5.351049406879978930e-05 6.194523157921681222e-05
7.017038286703822669e+05 5.190016660721630552e-05 6.033918698104870609e-05
7.236553422869649949e+05 5.032291128723137525e-05 5.874951456651692156e-05
7.462935686310129240e+05 4.877650113776822738e-05 5.718168225108282473e-05
7.696399902471150272e+05 4.726133709705897332e-05 5.564613346093498687e-05
7.937167617217558436e+05 4.577768721477609145e-05 5.413926580877945140e-05
8.185467307069021044e+05 4.432579897042222508e-05 5.264836016965159833e-05
8.441534596012993716e+05 4.290574872747029907e-05 5.117409943186142777e-05
8.705612479099855991e+05 4.151761907063237226e-05 4.971807818196634051e-05
8.977951553033331875e+05 4.016138576809964473e-05 4.828133051735085477e-05
9.258810253973945510e+05 3.883696331295339156e-05 4.686407383509557327e-05
9.548455102782303002e+05 3.754422289464470883e-05 4.546723910523135911e-05
9.847160957933764439e+05 3.628300241288662031e-05 4.409213238838699349e-05
1.015521127634569188e+06 3.505304129800642152e-05 4.273960222742751152e-05
1.047289838236357435e+06 3.385324029629450932e-05 4.141213418399956696e-05
1.080052374516254058e+06 3.268525082732164370e-05 4.011201298103597625e-05
1.113839826482618228e+06 3.154749414700757499e-05 3.884558526342201382e-05
1.148684256737554679e+06 3.043987915994564032e-05 3.760977271144590704e-05
1.184618730902682291e+06 2.936168119509451543e-05 3.639470714358577076e-05
1.221677348996793153e+06 2.830427162747373355e-05 3.520061861874962514e-05
1.259895277795025846e+06 2.729167881596561996e-05 3.402791778882903738e-05
1.299308784200417111e+06 2.629981742523567777e-05 3.287693909178589653e-05
1.339955269659337122e+06 2.533521583134005456e-05 3.174763827611146134e-05
1.381873305653633550e+06 2.439780262189744547e-05 3.064013660808698241e-05
1.425102670302996412e+06 2.348699987808041599e-05 2.955467275640952601e-05
1.469684386112447362e+06 2.260246459761908899e-05 2.849273719266199117e-05
1.515660758900601184e+06 2.174353179202556132e-05 2.745491671779298621e-05
1.563075417945817346e+06 2.090973554861127963e-05 2.644246081116304360e-05
1.611973357388155535e+06 2.010046959701773583e-05 2.545878452361250897e-05
1.662400978926613461e+06 1.931519920703406125e-05 2.450200923218456660e-05
1.714406135851968545e+06 1.855338594973611892e-05 2.356492895921498206e-05
1.768038178457208676e+06 1.781446397312436131e-05 2.264747442175947840e-05
1.823348000868438510e+06 1.709791998317591560e-05 2.174958365304905590e-05
1.880388089340916602e+06 1.640316642558542555e-05 2.087133389982145150e-05
1.939212572065826971e+06 1.572967507265581413e-05 2.001274107359042693e-05
1.999877270535286982e+06 1.507690607388063890e-05 1.917364783596416203e-05
2.062439752514088526e+06 1.444433839784512647e-05 1.835438131291877489e-05
2.126959386668691877e+06 1.383144174408336504e-05 1.755563396965234240e-05
2.193497398905055597e+06 1.323771078803271079e-05 1.677798286817780177e-05
2.262116930469026323e+06 1.266264022827965082e-05 1.602200988172076726e-05
2.332883097864153329e+06 1.210573596865183422e-05 1.528964574512416014e-05
2.405863054644066840e+06 1.156662061366442668e-05 1.458044790033024109e-05
2.481126055137765128e+06 1.104473069666588634e-05 1.388949881320489176e-05
2.558743520168588962e+06 1.053968968089324528e-05 1.321701346193770471e-05
2.638789104828934651e+06 1.005107386316337905e-05 1.256314690698412411e-05
2.721338768375308719e+06 9.578498569567026790e-06 1.192809805691445415e-05
2.806470846309838817e+06 9.121597717813111948e-06 1.131216655332082388e-05
2.894266124716751743e+06 8.680021304400511163e-06 1.071561849986393446e-05
2.984807916924327612e+06 8.253460080528901642e-06 1.013903121896262689e-05
3.078182142565079965e+06 7.841606059753069546e-06 9.583043326137599043e-06
3.174477409109193366e+06 7.444187986134574963e-06 9.048063838587591133e-06
3.273785095948576927e+06 7.060946786927630371e-06 8.534697883784193951e-06
3.376199441111340187e+06 6.691659154822262828e-06 8.043932064193295064e-06
3.481817630688966252e+06 6.336106929575517628e-06 7.576486309580881221e-06
3.590739891061055008e+06 5.994068072361356259e-06 7.128680658455109919e-06
3.703069584005141165e+06 5.665382027528534291e-06 6.700515479996447422e-06
3.818913304781854153e+06 5.349849203610481929e-06 6.291917063886847323e-06
3.938380983288488816e+06 5.047305161991418527e-06 5.902745441195974014e-06
4.061585988376979716e+06 4.757564712018163655e-06 5.532823910421534744e-06
4.188645235435271170e+06 4.480448738414369256e-06 5.181826303619285590e-06
4.319679297334173694e+06 4.215741547429076586e-06 4.849502043831499852e-06
4.454812518844988197e+06 3.963305440832438636e-06 4.535744588678247236e-06
4.594173134636476636e+06 3.722892416468479506e-06 4.240148210541237575e-06
4.737893390963143669e+06 3.494268644194776410e-06 3.962349158723134868e-06
4.886109671160326339e+06 3.277184018409872452e-06 3.702018518009863622e-06
5.038962625065150671e+06 3.071363361712356731e-06 3.459306397214234410e-06
5.196597302486197092e+06 2.876527449985266872e-06 3.231551933870905432e-06
5.359163290848514996e+06 2.692352192784795562e-06 3.017758998612344956e-06
5.526814857144603506e+06 2.518508771268471175e-06 2.817339419713413987e-06
5.699711094326075166e+06 2.354649142954546458e-06 2.629548288371671514e-06
5.878016072274912149e+06 2.200408413518413448e-06 2.453787907193250973e-06
6.061898993497571908e+06 2.055409851589713757e-06 2.289342064226854012e-06
6.251534353689711541e+06 1.919266193713683770e-06 2.135678544705096731e-06
6.447102107323869132e+06 1.791582755922036174e-06 1.992271261360884958e-06
6.648787838417262770e+06 1.671961584451640323e-06 1.858680057667583577e-06
6.856782936641737819e+06 1.560008131312503542e-06 1.734334525110427523e-06
7.071284778942996636e+06 1.455320707510753358e-06 1.618744884587717870e-06
7.292496916841444559e+06 1.357510199222638128e-06 1.511740478580059752e-06
7.520629269592407160e+06 1.266191519136408186e-06 1.412408964628112762e-06
7.755898323389001191e+06 1.180990491073249633e-06 1.319717040430602775e-06
7.998527336796708405e+06 1.101541649806886711e-06 1.233176363684042868e-06
8.248746552614580840e+06 1.027493788840605689e-06 1.152426322497458376e-06
8.506793416364153847e+06 9.585087420425277913e-07 1.077116657859761519e-06
8.772912801613356918e+06 8.942618844110983025e-07 1.006847204243074066e-06
9.047357242349293083e+06 8.344486426518218778e-07 9.412843052800123845e-07
9.330387172620359808e+06 7.787714016326569332e-07 8.800771896171292502e-07
9.622271173675134778e+06 7.269535395819492295e-07 8.230220501400070740e-07
9.923286228832544759e+06 6.787330758748855886e-07 7.700000031027688636e-07
1.023371798632519133e+07 6.338627342499249102e-07 7.207465996720703409e-07
1.055386103036523052e+07 5.921100691147944694e-07 6.750205734451475571e-07
1.088401916069005430e+07 5.532573372904302273e-07 6.325883107645232951e-07
1.122450568085305952e+07 5.171001385743574400e-07 5.930012717672361250e-07
1.157564369553303532e+07 4.834486681822993211e-07 5.560176783488740439e-07
1.193776641714435816e+07 4.521243961394982396e-07 5.214440358752846345e-07
1.231121748203892075e+07 4.229616267514170019e-07 4.890914167705110334e-07
1.269635127659972757e+07 3.958060634184610180e-07 4.588120383782801478e-07
1.309353327353612147e+07 3.705140102116107355e-07 4.305137465884661789e-07
1.350314037869872153e+07 3.469521987436124999e-07 4.040575857971923185e-07
1.392556128874464706e+07 3.249962050377143634e-07 3.792944440711325869e-07
1.436119685999077372e+07 3.045323066080629714e-07 3.560841593211559782e-07
1.481046048880676925e+07 2.854525442629177252e-07 3.343710676789676891e-07
1.527377850390712358e+07 2.676585279221119951e-07 3.141853498779462611e-07
1.575159057091624476e+07 2.510585053395524296e-07 2.954372300391552768e-07
1.624435010958865471e+07 2.355675605779234339e-07 2.779871654105589898e-07
1.675252472408217192e+07 2.211067868480376215e-07 2.616097829649756955e-07
1.727659664669034630e+07 2.076036517037558041e-07 2.462511193678809748e-07
1.781706319545732439e+07 1.949902426375114122e-07 2.318604869242155182e-07
1.837443724610724673e+07 1.832041232372834689e-07 2.183649023679856806e-07
1.894924771873823553e+07 1.721871341567017718e-07 2.056795632226437243e-07
1.954204007974051312e+07 1.618859186809233193e-07 1.937363656268336920e-07
2.015337685941735283e+07 1.522506094828802639e-07 1.825431549780947770e-07
2.078383818579755351e+07 1.432349042989664935e-07 1.720530671436689808e-07
2.143402233514858782e+07 1.347961270122279750e-07 1.621898749714305531e-07
2.210454629971019179e+07 1.268947789656079921e-07 1.528928356158039393e-07
2.279604637318982184e+07 1.194939156068974463e-07 1.441496433562757217e-07
2.350917875457284227e+07 1.125596877992617180e-07 1.359577744420908536e-07
2.424462017082330585e+07 1.060604640421305060e-07 1.283147364086457148e-07
2.500306851906321198e+07 9.996680226347321880e-08 1.212085460704123975e-07
2.578524352884276584e+07 9.425152198002443757e-08 1.145103537001706900e-07
2.659188744512690976e+07 8.888935165389418749e-08 1.082101295804635846e-07
2.742376573264952376e+07 8.385683418521251651e-08 1.022874573200904137e-07
2.828166780230029300e+07 7.913216069392668119e-08 9.671276869276928793e-08
2.916640776023706794e+07 7.469505931478232192e-08 9.144905612202230095e-08
3.007882518043095991e+07 7.052669887903836164e-08 8.646498949653201084e-08
3.101978590138100088e+07 6.660955243150006523e-08 8.178086135411170061e-08
3.199018284775060788e+07 6.292733557912550767e-08 7.738068558864901956e-08
3.299093687770942599e+07 5.946486996958471614e-08 7.323108766931745464e-08
3.402299765678064525e+07 5.620804817546729370e-08 6.928722068430827742e-08
