# # t F(afterglowpy) F(our) | flux in mJy, time in days
1.000000000000000000e+04 5.650304955140691497e-09 6.104724669570212988e-08
1.031283160672184749e+04 6.528539865230814407e-09 6.718677617994792715e-08
1.063544957486011117e+04 7.543080106064429169e-09 7.396355948729202091e-08
1.096816005273138035e+04 8.715044679005993900e-09 8.144775637579018131e-08
1.131127876593921428e+04 1.006880472653682389e-08 8.971742275673775687e-08
1.166513131698196230e+04 1.163245665238961429e-08 9.885938862832794504e-08
1.203005349423324151e+04 1.343847803736794485e-08 1.089702206142110058e-07
1.240639159058831865e+04 1.552429367481369359e-08 1.201576671525305890e-07
1.279450273207873397e+04 1.793308512671614195e-08 1.325445272824030393e-07
1.319475521676706012e+04 2.071470890715162033e-08 1.462679604707013278e-07
1.360752886424333155e+04 2.392657305632428564e-08 1.614795800139711988e-07
1.403321537605484627e+04 2.763493989953619784e-08 1.783577757145390403e-07
1.447221870741134444e+04 3.191619946527447658e-08 1.970964589221203539e-07
1.492495545051829140e+04 3.685828048131173670e-08 2.179105113266682331e-07
1.539185522990205391e+04 4.256264326380007746e-08 2.410461343818742259e-07
1.587336111010208697e+04 4.914607128197732269e-08 2.667882517989381820e-07
1.636993001611701948e+04 5.674295248642398127e-08 2.954388658002649389e-07
1.688203316700362848e+04 6.550820449149264661e-08 3.273406804278980659e-07
1.741015652304015384e+04 7.561984688928706213e-08 3.628925827329386001e-07
1.795480124687830539e+04 8.728269468802580797e-08 4.025326122374098793e-07
1.851648417912154036e+04 1.007324108940538339e-07 4.467372765499473185e-07
1.909573832878096800e+04 1.162394088915363731e-07 4.961177269396430112e-07
1.969311337907421694e+04 1.341145485675989303e-07 5.512818919271128990e-07
2.030917620904734940e+04 1.547146418931620050e-07 6.129086922549617549e-07
2.094451143151468932e+04 1.784485919569315123e-07 6.818269541919012699e-07
2.159972194782717270e+04 2.057855154766327995e-07 7.588546974298838725e-07
2.227542951999556317e+04 2.372626334593503784e-07 8.450073718230831039e-07
2.297227536071151189e+04 2.734941978545601323e-07 9.413835500514235188e-07
2.369092074182632132e+04 3.151832164296373058e-07 1.049270363611024387e-06
2.443204762186486914e+04 3.631322751613331913e-07 1.169968010106054687e-06
2.519635929317013506e+04 4.182563896399561737e-07 1.304987036692786960e-06
2.598458104929247202e+04 4.815993194007408587e-07 1.455949891664015318e-06
2.679746087325689587e+04 5.543477525797517361e-07 1.624684127664488032e-06
2.763577014736157435e+04 6.378500093283868290e-07 1.813467211233408022e-06
2.850030438518105075e+04 7.336364969832291665e-07 2.024583861223540324e-06
2.939188398646884161e+04 8.434384868617094883e-07 2.260547822680954181e-06
3.031135501567576284e+04 9.692145776208783411e-07 2.524207672630800042e-06
3.125959000482277770e+04 1.113171478540523563e-06 2.818372464162784958e-06
3.223748878149026859e+04 1.277792710387125707e-06 3.146845179439729716e-06
3.324597932270938327e+04 1.465864685612127973e-06 3.512973517794877360e-06
3.428601863556582975e+04 1.680505897842652884e-06 3.920784247652037427e-06
3.535859366535175650e+04 1.925194709181511092e-06 4.374256970370621981e-06
3.646472223212745303e+04 2.203796114226457289e-06 4.877810463165180385e-06
3.760545399658168026e+04 2.520591119173706264e-06 5.436935038708276065e-06
3.878187145610719745e+04 2.880298978869093578e-06 6.056110511123785433e-06
3.999509097203669808e+04 3.288103868489781096e-06 6.741364161546298414e-06
4.124626382901347824e+04 3.749661399766999471e-06 7.497339867215978234e-06
4.253657732750391733e+04 4.271116270737914360e-06 8.330157483806563748e-06
4.386725591048494243e+04 4.859094411119965213e-06 9.246211592378022546e-06
4.523956232538058248e+04 5.520700003582091676e-06 1.025060680886642310e-05
4.665479882234468096e+04 6.263475281141494156e-06 1.134983065937256373e-05
4.811430839003264555e+04 7.095369898385791043e-06 1.254871124776833560e-05
4.961947603002897813e+04 8.024674020816012696e-06 1.385338172696340785e-05
5.117173007114609936e+04 9.059928531028979236e-06 1.526945098829088696e-05
5.277254352483532421e+04 1.020981885783450550e-05 1.680222235976088985e-05
5.442343548300272232e+04 1.148303898502386459e-05 1.845524256968692389e-05
5.612597255954965658e+04 1.288813616507276194e-05 2.023176445299950163e-05
5.788177037701279914e+04 1.443328981244524905e-05 2.213246454914934917e-05
5.969249509970739746e+04 1.612515119378059812e-05 2.416040054630805151e-05
6.155986501483514439e+04 1.797200632535438420e-05 2.631658596130602025e-05
6.348565216305223294e+04 1.997997589729123391e-05 2.860018855489346049e-05
6.547168402004743257e+04 2.215286066129937748e-05 3.100722861265072482e-05
6.751984523072508455e+04 2.449102091525324630e-05 3.353483073597743932e-05
6.963207939763889590e+04 2.699993920560243382e-05 3.617602830629228114e-05
7.181039092537356191e+04 2.967605839620434055e-05 3.892833491470597132e-05
7.405684692262441968e+04 3.251642334801037326e-05 4.177656013466391329e-05
7.637357916378027585e+04 3.551535644250433850e-05 4.471389359252075609e-05
7.876278611187063507e+04 3.866433105140066288e-05 4.773077149851225694e-05
8.122673500479719951e+04 4.194000669120002489e-05 5.081370331682566650e-05
8.376776400682923850e+04 4.535181534174320418e-05 5.394804025118228954e-05
8.638828442740453465e+04 4.889017194613808119e-05 5.712175848279824720e-05
8.909078300934142317e+04 5.250547864724074539e-05 6.032101093296441400e-05
9.187782428863340465e+04 5.619226978590703404e-05 6.352512139252253871e-05
9.475205302806547843e+04 5.992871131182817061e-05 6.672500895590971275e-05
9.771619672696181806e+04 6.369171234220045508e-05 6.990012476256082894e-05
1.007730682094461808e+05 6.745748216977658692e-05 7.303851670487046023e-05
1.039255682936713129e+05 7.120371976929194076e-05 7.612684702802101496e-05
1.071766885445503431e+05 7.490128919175649959e-05 7.914439115234056564e-05
1.105295141126022063e+05 7.852878142034750049e-05 8.208313698243522151e-05
1.139872266616052511e+05 8.206285447976202694e-05 8.492801291652665090e-05
1.175531073878369934e+05 8.548285706816358403e-05 8.767196314897582506e-05
1.212305401337652875e+05 8.876821027819099255e-05 9.029778642110632917e-05
1.250230145991455938e+05 9.190044972436314818e-05 9.280597589491127158e-05
1.289341296525715734e+05 9.486354666655591147e-05 9.517224086921010555e-05
1.329675967466212751e+05 9.764324223775618051e-05 9.740596349263813745e-05
1.371272434398400947e+05 1.002277835266064307e-04 9.949770018054452498e-05
1.414170170289023954e+05 1.026075851980980846e-04 1.014355911438703659e-04
1.458409882943986449e+05 1.047754031201682403e-04 1.032193231311389953e-04
1.504033553638025187e+05 1.067250537822114916e-04 1.048581177127508876e-04
1.551084476952840632e+05 1.084555228001222082e-04 1.063319735233234743e-04
1.599607301861487795e+05 1.099654088553760772e-04 1.076536326115060203e-04
1.649648074098020734e+05 1.112549074603220170e-04 1.088208005543250253e-04
1.701254279852589243e+05 1.123263566235984312e-04 1.098293918564380940e-04
1.754474890833459795e+05 1.131835008489425777e-04 1.106868307612792851e-04
1.809360410738716600e+05 1.138313750267208206e-04 1.113901780882174474e-04
1.865962923181745864e+05 1.142760891828292546e-04 1.119447647548081973e-04
1.924336141115979990e+05 1.145269408770128506e-04 1.123528372283405811e-04
1.984535457805803162e+05 1.145849765519354124e-04 1.126208961644688483e-04
2.046617999391989724e+05 1.144686616692229954e-04 1.127472540458235452e-04
2.110642679101554677e+05 1.141752318430939008e-04 1.127460025779058599e-04
2.176670253153459053e+05 1.137222572833677129e-04 1.126144945470118521e-04
2.244763378413223836e+05 1.131173799377837300e-04 1.123604256265570448e-04
2.314986671851160936e+05 1.123694440881211563e-04 1.119921351547058621e-04
2.387406771860647132e+05 1.114881643022932475e-04 1.115135500424580878e-04
2.462092401494625374e+05 1.104831085907510482e-04 1.109303357333574257e-04
2.539114433680346992e+05 1.093635696848462832e-04 1.102507983330389954e-04
2.618545958474232757e+05 1.081378641318008355e-04 1.094857930543436709e-04
2.700462352420681855e+05 1.068175647673860057e-04 1.086270167408746255e-04
2.784941350080644479e+05 1.054087202759806686e-04 1.076796310163981069e-04
2.872063117797828163e+05 1.039205790736535652e-04 1.066518566385768794e-04
2.961910329772553523e+05 1.023611948159515699e-04 1.055493907526513614e-04
3.054568246515431674e+05 1.007382048745346245e-04 1.043727451789398987e-04
3.150124795755327796e+05 9.905919488744980748e-05 1.031297317402346433e-04
3.248670655878374819e+05 9.733089937647398905e-05 1.018291554273487837e-04
3.350299341977229924e+05 9.556009736292074477e-05 1.004748900413741664e-04
3.455107294592218241e+05 9.375311077768638964e-05 9.906925279315428499e-05
3.563193971228583832e+05 9.191569541686309542e-05 9.761805968271592218e-05
3.674661940736687975e+05 9.005360111599314981e-05 9.613132827750167707e-05
3.789616980644715950e+05 8.817192796449844887e-05 9.461833406508060563e-05
3.908168177536264411e+05 8.627565259427666920e-05 9.307906634267384830e-05
4.030428030568050453e+05 8.436936678034863792e-05 9.150618834949633316e-05
4.156512558225988178e+05 8.244286248554033830e-05 8.990310956922365837e-05
4.286541408420925145e+05 8.052870834545864927e-05 8.827716226966868523e-05
4.420637972028530203e+05 7.861713573470859820e-05 8.662971788168348779e-05
4.558929499981059344e+05 7.671136713387614772e-05 8.496272255562322090e-05
4.701547224022129667e+05 7.481433127686690600e-05 8.328002829248509688e-05
4.848626481239077984e+05 7.292873324565377351e-05 8.158675645598181250e-05
5.000306842491090065e+05 7.105700045483109959e-05 7.988882247492626429e-05
5.156732244854963501e+05 6.920143636586053638e-05 7.818743348454590880e-05
5.318051128214197233e+05 6.736406248122931123e-05 7.648574900292818537e-05
5.484416576121015241e+05 6.554623915931398796e-05 7.479037945000123954e-05
5.655986461065001786e+05 6.375350290870422101e-05 7.311103542077046827e-05
5.832923594286199659e+05 6.198696437754304498e-05 7.143412862964641124e-05
6.015395880274833180e+05 6.024904898794911253e-05 6.976087753427042445e-05
6.203576476104268804e+05 5.853874612455361477e-05 6.809066334456718951e-05
6.397643955748423468e+05 5.685725014201756071e-05 6.642632372581034966e-05
6.597782479539533379e+05 5.520768896680950852e-05 6.476989872525067604e-05
6.804181968927093549e+05 5.358544586605372266e-05 6.312544820007787107e-05
7.017038286703822669e+05 5.199437386628348292e-05 6.149550063027248723e-05
7.236553422869649949e+05 5.043433441172660061e-05 5.988030424689351673e-05
7.462935686310129240e+05 4.890279455141211185e-05 5.828100312469365282e-05
7.696399902471150272e+05 4.739905246883005996e-05 5.670045858329363553e-05
7.937167617217558436e+05 4.592219144197908230e-05 5.514615958675979910e-05
8.185467307069021044e+05 4.447690902296457324e-05 5.362340283529949220e-05
8.441534596012993716e+05 4.305778410166570129e-05 5.211824887684980446e-05
8.705612479099855991e+05 4.166768832298235812e-05 5.063057734881256527e-05
8.977951553033331875e+05 4.030204058682367111e-05 4.915986534114247307e-05
9.258810253973945510e+05 3.896554212142077685e-05 4.770813432408428341e-05
9.548455102782303002e+05 3.765397348893718033e-05 4.627582295098108315e-05
9.847160957933764439e+05 3.637134144143181071e-05 4.486569535626396790e-05
1.015521127634569188e+06 3.511235175272261035e-05 4.347833647923913771e-05
1.047289838236357435e+06 3.387838210369977193e-05 4.211501265648541693e-05
1.080052374516254058e+06 3.268051304303221680e-05 4.077494096327101869e-05
1.113839826482618228e+06 3.149935773274714309e-05 3.945984464446124175e-05
1.148684256737554679e+06 3.034696865702056200e-05 3.817757434785621858e-05
1.184618730902682291e+06 2.922073268197561497e-05 3.692487762300516026e-05
1.221677348996793153e+06 2.811661745793123690e-05 3.569404996172261251e-05
1.259895277795025846e+06 2.704143325682168583e-05 3.448589816780416826e-05
1.299308784200417111e+06 2.598960207355748781e-05 3.329913694086212704e-05
1.339955269659337122e+06 2.496450298993247078e-05 3.213397926641431527e-05
1.381873305653633550e+06 2.396874785106113608e-05 3.099015333127373690e-05
1.425102670302996412e+06 2.299540963489717571e-05 2.986874650128435406e-05
1.469684386112447362e+06 2.205004842846422882e-05 2.876997518919203458e-05
1.515660758900601184e+06 2.112704884252416458e-05 2.769514321781502668e-05
1.563075417945817346e+06 2.022854137919342826e-05 2.664482990613106829e-05
1.611973357388155535e+06 1.935661464779073551e-05 2.561948360930551487e-05
1.662400978926613461e+06 1.850872984851692577e-05 2.462572757051121935e-05
1.714406135851968545e+06 1.768450144684968268e-05 2.365439221132811332e-05
1.768038178457208676e+06 1.688668970334025743e-05 2.270288053523409296e-05
1.823348000868438510e+06 1.611029451670694106e-05 2.177164672388501161e-05
1.880388089340916602e+06 1.536132013759723222e-05 2.086081513174093801e-05
1.939212572065826971e+06 1.463059975423266884e-05 1.997126979678026624e-05
1.999877270535286982e+06 1.392900460032410247e-05 1.910232170927752518e-05
2.062439752514088526e+06 1.324408678182447749e-05 1.825381902129224321e-05
2.126959386668691877e+06 1.258668132644764711e-05 1.742565768132177341e-05
2.193497398905055597e+06 1.194738776474110580e-05 1.661850948116375199e-05
2.262116930469026323e+06 1.133296392030791272e-05 1.583297578404744920e-05
2.332883097864153329e+06 1.073914282704305283e-05 1.507181736858716976e-05
2.405863054644066840e+06 1.016532192917448893e-05 1.433858596641894202e-05
2.481126055137765128e+06 9.614285784328462965e-06 1.362619359283901295e-05
2.558743520168588962e+06 9.081274458867799734e-06 1.293434840230505808e-05
2.638789104828934651e+06 8.568029667357271830e-06 1.226324466281517369e-05
2.721338768375308719e+06 8.076590484153494748e-06 1.161320144363357248e-05
2.806470846309838817e+06 7.602474882724122322e-06 1.098491352272023146e-05
2.894266124716751743e+06 7.146228259242049397e-06 1.037891744939390244e-05
2.984807916924327612e+06 6.711273959348108198e-06 9.795686794963743321e-06
3.078182142565079965e+06 6.293071674900220152e-06 9.236101204433057552e-06
3.174477409109193366e+06 5.892774867064701596e-06 8.700250431657854727e-06
3.273785095948576927e+06 5.507604963760199267e-06 8.188608835939458440e-06
3.376199441111340187e+06 5.141674374214127223e-06 7.703708161727238659e-06
3.481817630688966252e+06 4.793161465464028777e-06 7.243626539820478687e-06
3.590739891061055008e+06 4.460806940026477300e-06 6.805132998126334037e-06
3.703069584005141165e+06 4.141724287919423975e-06 6.388290264170226242e-06
3.818913304781854153e+06 3.841818876821575027e-06 5.992483249258220028e-06
3.938380983288488816e+06 3.556556790581749138e-06 5.617623164730350740e-06
4.061585988376979716e+06 3.286181230266780515e-06 5.263143222257951959e-06
4.188645235435271170e+06 3.031584399495623291e-06 4.928201364571803953e-06
4.319679297334173694e+06 2.792355240510680389e-06 4.612284260601450938e-06
4.454812518844988197e+06 2.568769363282040595e-06 4.314583035586598828e-06
4.594173134636476636e+06 2.358847239781975860e-06 4.034262320089154631e-06
4.737893390963143669e+06 2.164854075848130038e-06 3.771506643595762185e-06
4.886109671160326339e+06 1.983695897030208584e-06 3.527738017571429459e-06
5.038962625065150671e+06 1.817553073185055202e-06 3.298886717808203975e-06
5.196597302486197092e+06 1.662666809556987231e-06 3.084075302651743384e-06
5.359163290848514996e+06 1.522129380552989337e-06 2.882576088935739126e-06
5.526814857144603506e+06 1.390466852262295503e-06 2.693392316138151487e-06
5.699711094326075166e+06 1.271107462677285596e-06 2.515818103929530819e-06
5.878016072274912149e+06 1.161443883023954786e-06 2.349492200567310259e-06
6.061898993497571908e+06 1.061811872915776888e-06 2.193669449942190205e-06
6.251534353689711541e+06 9.705652612793708978e-07 2.047598157185916191e-06
6.447102107323869132e+06 8.866931800735390320e-07 1.910726726655876609e-06
6.648787838417262770e+06 8.107967024223499324e-07 1.782897296020612172e-06
6.856782936641737819e+06 7.417419091034179712e-07 1.663952293784709666e-06
7.071284778942996636e+06 6.784377061626497238e-07 1.554614329628113790e-06
7.292496916841444559e+06 6.208521534565172268e-07 1.452242317773440316e-06
7.520629269592407160e+06 5.685001667920138247e-07 1.356402904212655028e-06
7.755898323389001191e+06 5.208176258355798326e-07 1.266810070635219642e-06
7.998527336796708405e+06 4.781867968526180643e-07 1.183013384632466581e-06
8.248746552614580840e+06 4.387224318996915871e-07 1.104574795569821007e-06
8.506793416364153847e+06 4.031076182127744145e-07 1.031114042919332369e-06
8.772912801613356918e+06 3.706089146915983640e-07 9.623290042284948158e-07
9.047357242349293083e+06 3.408777565669155833e-07 8.981057842013084370e-07
9.330387172620359808e+06 3.136832630383590698e-07 8.381932730098987756e-07
9.622271173675134778e+06 2.888976726445196237e-07 7.822583283626045754e-07
9.923286228832544759e+06 2.663577604461592904e-07 7.301498458911068015e-07
1.023371798632519133e+07 2.459049512863528930e-07 6.823906496263004854e-07
1.055386103036523052e+07 2.267987106520653900e-07 6.376985483024848620e-07
1.088401916069005430e+07 2.094738718355342852e-07 5.958458050402244380e-07
1.122450568085305952e+07 1.936217143406420882e-07 5.566266343447946554e-07
1.157564369553303532e+07 1.790826921620582451e-07 5.199554946898333912e-07
1.193776641714435816e+07 1.657300404219410736e-07 4.857679200518190010e-07
1.231121748203892075e+07 1.534966277879691660e-07 4.538774497572947258e-07
1.269635127659972757e+07 1.424104528120564831e-07 4.240910462234021509e-07
1.309353327353612147e+07 1.319435634081622377e-07 3.962361034840651465e-07
1.350314037869872153e+07 1.226924736457912793e-07 3.701624341832130831e-07
1.392556128874464706e+07 1.137826370422627360e-07 3.457289910520641561e-07
1.436119685999077372e+07 1.058349275394962028e-07 3.228041053752098872e-07
1.481046048880676925e+07 9.859249102602792753e-08 3.016672881852698057e-07
1.527377850390712358e+07 9.169067448631957823e-08 2.821776427492619184e-07
1.575159057091624476e+07 8.544449293093266447e-08 2.639990596919442944e-07
1.624435010958865471e+07 7.973690033258428634e-08 2.470249600501832517e-07
1.675252472408217192e+07 7.442641777362832902e-08 2.311532671048859667e-07
1.727659664669034630e+07 6.948910577455976748e-08 2.162839305768207985e-07
1.781706319545732439e+07 6.492995115443781725e-08 2.023191243510229469e-07
1.837443724610724673e+07 6.070976713529271553e-08 1.891614573604970890e-07
1.894924771873823553e+07 5.681851792962099788e-08 1.768357450076064196e-07
1.954204007974051312e+07 5.320369380243691659e-08 1.653817020490366655e-07
2.015337685941735283e+07 4.988440958958117388e-08 1.547377071341325524e-07
2.078383818579755351e+07 4.679128746897105487e-08 1.448264752302920375e-07
2.143402233514858782e+07 4.387558769493832751e-08 1.355677318953167008e-07
2.210454629971019179e+07 4.120927445598823930e-08 1.269694715216806222e-07
2.279604637318982184e+07 3.871520505138563963e-08 1.189280789531409727e-07
2.350917875457284227e+07 3.643313415079311564e-08 1.112850179120747567e-07
2.424462017082330585e+07 3.429162444391325153e-08 1.041902512132364872e-07
2.500306851906321198e+07 3.224731728748984059e-08 9.763599101244983124e-08
2.578524352884276584e+07 3.037608566782885752e-08 9.156341557311325936e-08
2.659188744512690976e+07 2.864173813386136981e-08 8.590538857575917643e-08
2.742376573264952376e+07 2.699501239397164187e-08 8.058429927701736234e-08
2.828166780230029300e+07 2.546905678474706036e-08 7.549983393477220407e-08
2.916640776023706794e+07 2.401568109446098756e-08 7.063285553179385798e-08
3.007882518043095991e+07 2.270856302345330475e-08 6.611988870907106946e-08
3.101978590138100088e+07 2.144494322925936305e-08 6.198616182647349722e-08
3.199018284775060788e+07 2.028146288400376136e-08 5.818061795616837496e-08
3.299093687770942599e+07 1.919139236485281348e-08 5.463992894385357284e-08
3.402299765678064525e+07 1.816282297162217784e-08 5.129204397338012461e-08
