# # t F(afterglowpy) F(our) | flux in mJy, time in days
1.000000000000000000e+04 3.922682037688161039e+00 2.366078100073802482e+00
1.031283160672184749e+04 3.984288640292432238e+00 2.409170333480478376e+00
1.063544957486011117e+04 4.046874457375229106e+00 2.453885004838014083e+00
1.096816005273138035e+04 4.110454227254129123e+00 2.498348151273109607e+00
1.131127876593921428e+04 4.175044540948571026e+00 2.543782511713521099e+00
1.166513131698196230e+04 4.240660137890203352e+00 2.589702879288476645e+00
1.203005349423324151e+04 4.307317599686181886e+00 2.636976522031611481e+00
1.240639159058831865e+04 4.375032325786176735e+00 2.684284947320028092e+00
1.279450273207873397e+04 4.443186942402147288e+00 2.732846235983813710e+00
1.319475521676706012e+04 4.513465934592523432e+00 2.782520853541905037e+00
1.360752886424333155e+04 4.584696212042220331e+00 2.832544748573788240e+00
1.403321537605484627e+04 4.656816747928773204e+00 2.884150894662761200e+00
1.447221870741134444e+04 4.730083864884303324e+00 2.935846483287707365e+00
1.492495545051829140e+04 4.804517107444427282e+00 2.989377574295730255e+00
1.539185522990205391e+04 4.880136222006593805e+00 3.042518696296337311e+00
1.587336111010208697e+04 4.956961048771948875e+00 3.097507405867113484e+00
1.636993001611701948e+04 5.035010733752312007e+00 3.152404786069118003e+00
1.688203316700362848e+04 5.114306216745666767e+00 3.208222951981010596e+00
1.741015652304015384e+04 5.194867267562789159e+00 3.265573714102254943e+00
1.795480124687830539e+04 5.276715928089187990e+00 3.323235433368875835e+00
1.851648417912154036e+04 5.359872195382768822e+00 3.382496059487544393e+00
1.909573832878096800e+04 5.445736429336339057e+00 3.442280333972704831e+00
1.969311337907421694e+04 5.531326339044589702e+00 3.503795183159637450e+00
2.030917620904734940e+04 5.617399134779240910e+00 3.566612959483336454e+00
2.094451143151468932e+04 5.705999744327704626e+00 3.629241838520427699e+00
2.159972194782717270e+04 5.796017241555256660e+00 3.694086622800840658e+00
2.227542951999556317e+04 5.887474265758267045e+00 3.759741040403307366e+00
2.297227536071151189e+04 5.980393694550128814e+00 3.825790998424659417e+00
2.369092074182632132e+04 6.074799906130003535e+00 3.893026286796986479e+00
2.443204762186486914e+04 6.170717115306755041e+00 3.961014910857643123e+00
2.519635929317013506e+04 6.268170761288914150e+00 4.030424923055957009e+00
2.598458104929247202e+04 6.367184905080617519e+00 4.101460711151672989e+00
2.679746087325689587e+04 6.467786604121430472e+00 4.173288975795371947e+00
2.763577014736157435e+04 6.570001667254139477e+00 4.246107855727265346e+00
2.850030438518105075e+04 6.673856581423075696e+00 4.320914027986012762e+00
2.939188398646884161e+04 6.779378241408243078e+00 4.397214244904438019e+00
3.031135501567576284e+04 6.886595580093228364e+00 4.474377778215382406e+00
3.125959000482277770e+04 6.995535385556439500e+00 4.552848499308900010e+00
3.223748878149026859e+04 7.106226200750089816e+00 4.632625529243542317e+00
3.324597932270938327e+04 7.218698577327074872e+00 4.713776524111272792e+00
3.428601863556582975e+04 7.332980461534530647e+00 4.795482207037129463e+00
3.535859366535175650e+04 7.449102548746608932e+00 4.878721134365264334e+00
3.646472223212745303e+04 7.567095716098603653e+00 4.963638041343964247e+00
3.760545399658168026e+04 7.686908662538153081e+00 5.049805924453725225e+00
3.878187145610719745e+04 7.808867810199656034e+00 5.137360552262317803e+00
3.999509097203669808e+04 7.932775184560748372e+00 5.226641029976887509e+00
4.124626382901347824e+04 8.058659212485251189e+00 5.318046433951616692e+00
4.253657732750391733e+04 8.186553436830317665e+00 5.410963963541355781e+00
4.386725591048494243e+04 8.316491061911719385e+00 5.505404056833947735e+00
4.523956232538058248e+04 8.448509054982851652e+00 5.601302145301728430e+00
4.665479882234468096e+04 8.582267303520014323e+00 5.698604239640631342e+00
4.811430839003264555e+04 8.718572417757147974e+00 5.797580433083193263e+00
4.961947603002897813e+04 8.857085444486301640e+00 5.897755572158744464e+00
5.117173007114609936e+04 8.997845100131263152e+00 5.999177853724654952e+00
5.277254352483532421e+04 9.140888104186835506e+00 6.102657226468346963e+00
5.442343548300272232e+04 9.286253110187130844e+00 6.208477751013724344e+00
5.612597255954965658e+04 9.433978713187455512e+00 6.315940109822209436e+00
5.788177037701279914e+04 9.584104853153103676e+00 6.425275812565748090e+00
5.969249509970739746e+04 9.736780582390066385e+00 6.536742913302147073e+00
6.155986501483514439e+04 9.891809972209053115e+00 6.650572944611547577e+00
6.348565216305223294e+04 1.004936960600066698e+01 6.766218875805947164e+00
6.547168402004743257e+04 1.020950094354937754e+01 6.883489171959589648e+00
6.751984523072508455e+04 1.037225099764685510e+01 7.002806106786941598e+00
6.963207939763889590e+04 1.053765857886015844e+01 7.123829784992720349e+00
7.181039092537356191e+04 1.070576979770949322e+01 7.247047988644992778e+00
7.405684692262441968e+04 1.087662571201950179e+01 7.371446883101250513e+00
7.637357916378027585e+04 1.105027546841105490e+01 7.498140646196642223e+00
7.876278611187063507e+04 1.122676029131959829e+01 7.627405309569775582e+00
8.122673500479719951e+04 1.140446041842672109e+01 7.759382340468069295e+00
8.376776400682923850e+04 1.158844115493166171e+01 7.893548703205336636e+00
8.638828442740453465e+04 1.177373230941762472e+01 8.029802974440658048e+00
8.909078300934142317e+04 1.196206022959084159e+01 8.168756349715900811e+00
9.187782428863340465e+04 1.215347612278809208e+01 8.310771297397341328e+00
9.475205302806547843e+04 1.234803359690100066e+01 8.455229901073044729e+00
9.771619672696181806e+04 1.254578934452713845e+01 8.601430466775576988e+00
1.007730682094461808e+05 1.274679336654127759e+01 8.750100982184898513e+00
1.039255682936713129e+05 1.295110482409356401e+01 8.901011404504515667e+00
1.071766885445503431e+05 1.315877626999314209e+01 9.054456506623495216e+00
1.105295141126022063e+05 1.336986613104234856e+01 9.210327617380515974e+00
1.139872266616052511e+05 1.358442822711466924e+01 9.368224823993392292e+00
1.175531073878369934e+05 1.380251852031514126e+01 9.529889140598477582e+00
1.212305401337652875e+05 1.402419207083175934e+01 9.694744879742774657e+00
1.250230145991455938e+05 1.424950352183580371e+01 9.863192138674536480e+00
1.289341296525715734e+05 1.447850558564701196e+01 1.003363105279647982e+01
1.329675967466212751e+05 1.471125408650960686e+01 1.020695440112183938e+01
1.371272434398400947e+05 1.494779837533912570e+01 1.038395176330644709e+01
1.414170170289023954e+05 1.518819264759717491e+01 1.056386688402470142e+01
1.458409882943986449e+05 1.543247969244134765e+01 1.074607206141078919e+01
1.504033553638025187e+05 1.568070596029657615e+01 1.093048865807326564e+01
1.551084476952840632e+05 1.593291368076150505e+01 1.111720768024609640e+01
1.599607301861487795e+05 1.618914145260560034e+01 1.130760826265930241e+01
1.649648074098020734e+05 1.644941538220391308e+01 1.150128480661129871e+01
1.701254279852589243e+05 1.671376075853135390e+01 1.169758053893303007e+01
1.754474890833459795e+05 1.698219238568947276e+01 1.189731358282642582e+01
1.809360410738716600e+05 1.725471166881679252e+01 1.209982468297885028e+01
1.865962923181745864e+05 1.753131301095682915e+01 1.230693334178055665e+01
1.924336141115979990e+05 1.781196975376423808e+01 1.251549665659301702e+01
1.984535457805803162e+05 1.809663854519552473e+01 1.272636129363071511e+01
2.046617999391989724e+05 1.838526226816054532e+01 1.293933117785466003e+01
2.110642679101554677e+05 1.867775503929254199e+01 1.315521399186836859e+01
2.176670253153459053e+05 1.897400492216643286e+01 1.337276419461726640e+01
2.244763378413223836e+05 1.927387262155124859e+01 1.358994399870536185e+01
2.314986671851160936e+05 1.957718714273070049e+01 1.380907468746400646e+01
2.387406771860647132e+05 1.988373996175299041e+01 1.402980135872645917e+01
2.462092401494625374e+05 2.019328387809955672e+01 1.425253078724474776e+01
2.539114433680346992e+05 2.050591560871164987e+01 1.447587498155003871e+01
2.618545958474232757e+05 2.082015550970549356e+01 1.469864482197878708e+01
2.700462352420681855e+05 2.113676966968378323e+01 1.492181761022981235e+01
2.784941350080644479e+05 2.145495555143061850e+01 1.514483862620742549e+01
2.872063117797828163e+05 2.177423855355693760e+01 1.536664402740804292e+01
2.961910329772553523e+05 2.209410091139176657e+01 1.558563667173153888e+01
3.054568246515431674e+05 2.241397887975136527e+01 1.580164981734179541e+01
3.150124795755327796e+05 2.273326625792872591e+01 1.601431174691053627e+01
3.248670655878374819e+05 2.305132546716832564e+01 1.622379934435737070e+01
3.350299341977229924e+05 2.336748275142795706e+01 1.642953233612562869e+01
3.455107294592218241e+05 2.368103705599306252e+01 1.663017025926643555e+01
3.563193971228583832e+05 2.399127452395123328e+01 1.682630480236401027e+01
3.674661940736687975e+05 2.429746681375057804e+01 1.701860511733674386e+01
3.789616980644715950e+05 2.459889716192416742e+01 1.720672845707455068e+01
3.908168177536264411e+05 2.489484071919457975e+01 1.738876840166069826e+01
4.030428030568050453e+05 2.518460926047489679e+01 1.756347361587199529e+01
4.156512558225988178e+05 2.546752654273844740e+01 1.773134522945531444e+01
4.286541408420925145e+05 2.574296341208554395e+01 1.789344729195871508e+01
4.420637972028530203e+05 2.601032724121082040e+01 1.804866814351615645e+01
4.558929499981059344e+05 2.626903179813429645e+01 1.819560738025020541e+01
4.701547224022129667e+05 2.651867253873355423e+01 1.833285813764740979e+01
4.848626481239077984e+05 2.675879858573226144e+01 1.846354037655209623e+01
5.000306842491090065e+05 2.698904908528461277e+01 1.858852327880281408e+01
5.156732244854963501e+05 2.720912549553670701e+01 1.870757006545005652e+01
5.318051128214197233e+05 2.741879404073439730e+01 1.881813304659094044e+01
5.484416576121015241e+05 2.761788577077297191e+01 1.892236974458808874e+01
5.655986461065001786e+05 2.780629059704323680e+01 1.902018876851174767e+01
5.832923594286199659e+05 2.798396068650358615e+01 1.911280936399907660e+01
6.015395880274833180e+05 2.815090647605168783e+01 1.919430626241422999e+01
6.203576476104268804e+05 2.830718437670568477e+01 1.926163515699477102e+01
6.397643955748423468e+05 2.845290439925923920e+01 1.930980469491165152e+01
6.597782479539533379e+05 2.858821404339231975e+01 1.933821934514159580e+01
6.804181968927093549e+05 2.871155394223125867e+01 1.933816695543132624e+01
7.017038286703822669e+05 2.878681580170884047e+01 1.929037428562833156e+01
7.236553422869649949e+05 2.879786006419943334e+01 1.918913334496442857e+01
7.462935686310129240e+05 2.875738048195931640e+01 1.903447665988931092e+01
7.696399902471150272e+05 2.863095264384554994e+01 1.882779400394874258e+01
7.937167617217558436e+05 2.846074713405736745e+01 1.856654721261648788e+01
8.185467307069021044e+05 2.822124912737928781e+01 1.825435201531213281e+01
8.441534596012993716e+05 2.792486778432703431e+01 1.789170928282995376e+01
8.705612479099855991e+05 2.759034685094889738e+01 1.747864142516325714e+01
8.977951553033331875e+05 2.717716154187414190e+01 1.701733484118362938e+01
9.258810253973945510e+05 2.671688980957888759e+01 1.650517480602396247e+01
9.548455102782303002e+05 2.620229888397583551e+01 1.594152193144253360e+01
9.847160957933764439e+05 2.563889022502411308e+01 1.533071439553844684e+01
1.015521127634569188e+06 2.502495744918860510e+01 1.467551647470573251e+01
1.047289838236357435e+06 2.435509593875700673e+01 1.398181307742609292e+01
1.080052374516254058e+06 2.363712158258139695e+01 1.325174845510696287e+01
1.113839826482618228e+06 2.287917632978161109e+01 1.248964020276109821e+01
1.148684256737554679e+06 2.207605149623133656e+01 1.173320948356958482e+01
1.184618730902682291e+06 2.120897563709355182e+01 1.100086671837750707e+01
1.221677348996793153e+06 2.030474154775020779e+01 1.029756570489911027e+01
1.259895277795025846e+06 1.935555545097864893e+01 9.638210901841315348e+00
1.299308784200417111e+06 1.836229633685737994e+01 9.023407163382508145e+00
1.339955269659337122e+06 1.732556194366378577e+01 8.449260933618294445e+00
1.381873305653633550e+06 1.625450813226325408e+01 7.914936745686234509e+00
1.425102670302996412e+06 1.524118459438784257e+01 7.415366540488301794e+00
1.469684386112447362e+06 1.429337355902756812e+01 6.946309391710605574e+00
1.515660758900601184e+06 1.340671969275544839e+01 6.505687056725017570e+00
1.563075417945817346e+06 1.257714242508230740e+01 6.093272774571338424e+00
1.611973357388155535e+06 1.180085410254980083e+01 5.706651130295472107e+00
1.662400978926613461e+06 1.107432031468241895e+01 5.343616091380910760e+00
1.714406135851968545e+06 1.039423759695596239e+01 5.004628372786256385e+00
1.768038178457208676e+06 9.757537240503413756e+00 4.688411481752777554e+00
1.823348000868438510e+06 9.161333435292233318e+00 4.392995084160273400e+00
1.880388089340916602e+06 8.602968637697737009e+00 4.117531104530653074e+00
1.939212572065826971e+06 8.079949138658108154e+00 3.861589016333844882e+00
1.999877270535286982e+06 7.589949581936293654e+00 3.621567787069315703e+00
2.062439752514088526e+06 7.130798750371148742e+00 3.395797116242644353e+00
2.126959386668691877e+06 6.700487299772825089e+00 3.183995269696689778e+00
2.193497398905055597e+06 6.297127010663414737e+00 2.985565431073530007e+00
2.262116930469026323e+06 5.918957187968580946e+00 2.799399373241297173e+00
2.332883097864153329e+06 5.564357741998660956e+00 2.624326993819301901e+00
2.405863054644066840e+06 5.231801481683014288e+00 2.460195943875761238e+00
2.481126055137765128e+06 4.919855679223840816e+00 2.306820905353373252e+00
2.558743520168588962e+06 4.627193640734992286e+00 2.163677889548996092e+00
2.638789104828934651e+06 4.352576760351166918e+00 2.030169116888125291e+00
2.721338768375308719e+06 4.094850165374564810e+00 1.906027967422146530e+00
2.806470846309838817e+06 3.852930253970363594e+00 1.789682822601103895e+00
2.894266124716751743e+06 3.625821373574049655e+00 1.680316612028330381e+00
2.984807916924327612e+06 3.412570544179853727e+00 1.577439086484661246e+00
3.078182142565079965e+06 3.212299668804659003e+00 1.480941247360838320e+00
3.174477409109193366e+06 3.024199039919517329e+00 1.390373301361421010e+00
3.273785095948576927e+06 2.847491608991380208e+00 1.305256214427378048e+00
3.376199441111340187e+06 2.681463551121722855e+00 1.225183398557498027e+00
3.481817630688966252e+06 2.525451597267435844e+00 1.150023079767431566e+00
3.590739891061055008e+06 2.378823041099911606e+00 1.079592879652035986e+00
3.703069584005141165e+06 2.240991438744819764e+00 1.013964009409048961e+00
3.818913304781854153e+06 2.111414824792519962e+00 9.528486208429515214e-01
3.938380983288488816e+06 1.989580712453587141e+00 8.958103261387465599e-01
4.061585988376979716e+06 1.875007883883319071e+00 8.421948435663124677e-01
4.188645235435271170e+06 1.767247375491316941e+00 7.917783291691277148e-01
4.319679297334173694e+06 1.665882461016105820e+00 7.443803750045102641e-01
4.454812518844988197e+06 1.570520348240583841e+00 6.998084030864722971e-01
4.594173134636476636e+06 1.480793074267682030e+00 6.578983182443582933e-01
4.737893390963143669e+06 1.396357148191402109e+00 6.184770722000416665e-01
4.886109671160326339e+06 1.316887860019425149e+00 5.813928005542741140e-01
5.038962625065150671e+06 1.242084319642888568e+00 5.465467579436634749e-01
5.196597302486197092e+06 1.171663794671854220e+00 5.137858422841108386e-01
5.359163290848514996e+06 1.105361937306541975e+00 4.830940502087006094e-01
5.526814857144603506e+06 1.042929061425228454e+00 4.545631664768021163e-01
5.699711094326075166e+06 9.841318397112005512e-01 4.279664645080575314e-01
5.878016072274912149e+06 9.287520623298808342e-01 4.029524922094293582e-01
6.061898993497571908e+06 8.765853853656652150e-01 3.794151522235240659e-01
6.251534353689711541e+06 8.274392675528472463e-01 3.572620417302455054e-01
6.447102107323869132e+06 7.811326494008937749e-01 3.364040675369132094e-01
6.648787838417262770e+06 7.374970104936093840e-01 3.167298473816723692e-01
6.856782936641737819e+06 6.963741522768365222e-01 2.982205690939521703e-01
7.071284778942996636e+06 6.576142230521704324e-01 2.808176376532367513e-01
7.292496916841444559e+06 6.210770265283027669e-01 2.644515823705028690e-01
7.520629269592407160e+06 5.866314702135506653e-01 2.490386340718407920e-01
7.755898323389001191e+06 5.541545357191983712e-01 2.344557360567459392e-01
7.998527336796708405e+06 5.235300803515735568e-01 2.207761602931637146e-01
8.248746552614580840e+06 4.946491589247578036e-01 2.081259842453683506e-01
8.506793416364153847e+06 4.674098168887505511e-01 1.963422136859104272e-01
8.772912801613356918e+06 4.417160152382892946e-01 1.851938412213638141e-01
9.047357242349293083e+06 4.174778252510998322e-01 1.746139634441697397e-01
9.330387172620359808e+06 3.946099340623321905e-01 1.646847812502160724e-01
9.622271173675134778e+06 3.730325413998190065e-01 1.553744430560320688e-01
9.923286228832544759e+06 3.526707942102668691e-01 1.466296835133975573e-01
1.023371798632519133e+07 3.334541882725917672e-01 1.383045900180881194e-01
1.055386103036523052e+07 3.153165281001401588e-01 1.304080063502937870e-01
1.088401916069005430e+07 2.981954090230277132e-01 1.230201906368128678e-01
1.122450568085305952e+07 2.820322681965773404e-01 1.161143227174055714e-01
1.157564369553303532e+07 2.667720314597218922e-01 1.096020007961170384e-01
1.193776641714435816e+07 2.523629363323673380e-01 1.033734778933148440e-01
1.231121748203892075e+07 2.387559774421732506e-01 9.748670158156240440e-02
1.269635127659972757e+07 2.259051851501734653e-01 9.210481510029490393e-02
1.309353327353612147e+07 2.137673327874309304e-01 8.710739588304394765e-02
1.350314037869872153e+07 2.023017400117726183e-01 8.234504039268751574e-02
1.392556128874464706e+07 1.914701742508013449e-01 7.777421066194202537e-02
1.436119685999077372e+07 1.812365744890343244e-01 7.346498558390603117e-02
1.481046048880676925e+07 1.715670394188218706e-01 6.946899515177604179e-02
1.527377850390712358e+07 1.624294745028289910e-01 6.573142151056000915e-02
1.575159057091624476e+07 1.537938132519333090e-01 6.214031861267535484e-02
1.624435010958865471e+07 1.456316680296264043e-01 5.868992932837456544e-02
1.675252472408217192e+07 1.379163471546309694e-01 5.546451012585354445e-02
1.727659664669034630e+07 1.306227769551657758e-01 5.249210928077269883e-02
1.781706319545732439e+07 1.237272052017416579e-01 4.967550958508473724e-02
1.837443724610724673e+07 1.172072279127446687e-01 4.695987089328354513e-02
1.894924771873823553e+07 1.110417728991259650e-01 4.435452575103780715e-02
1.954204007974051312e+07 1.052110484590053907e-01 4.194947913859862348e-02
2.015337685941735283e+07 9.969640373440893932e-02 3.977850384769083397e-02
2.078383818579755351e+07 9.448011713030396441e-02 3.769380866656103779e-02
2.143402233514858782e+07 8.954565480859379145e-02 3.567742373804171779e-02
2.210454629971019179e+07 8.487733356006109398e-02 3.375414283263457327e-02
2.279604637318982184e+07 8.046036574684918563e-02 3.200259668512334121e-02
2.350917875457284227e+07 7.628076900621653944e-02 3.036102390889712163e-02
2.424462017082330585e+07 7.232546751262106111e-02 2.876906909735778284e-02
2.500306851906321198e+07 6.858209817431047683e-02 2.722650085008803192e-02
2.578524352884276584e+07 6.503890848014476367e-02 2.578154614892499280e-02
2.659188744512690976e+07 6.168488805400127589e-02 2.447398079385185513e-02
2.742376573264952376e+07 5.850967899856335946e-02 2.321759535670749400e-02
2.828166780230029300e+07 5.550340207579679275e-02 2.199707942240771222e-02
2.916640776023706794e+07 5.265684112424159208e-02 2.081678412136385090e-02
3.007882518043095991e+07 4.996125968321636635e-02 1.974464156587452807e-02
3.101978590138100088e+07 4.740836146912608823e-02 1.875298545942539336e-02
3.199018284775060788e+07 4.499042434673682089e-02 1.778727927537220380e-02
3.299093687770942599e+07 4.270005358333282819e-02 1.685669035613983346e-02
3.402299765678064525e+07 4.053033894058855752e-02 1.598292550376668314e-02
