# nu      SYN SPN       SSC Sari Esin     Syn flux       IC flux     Total spectrum     Total spectrum with pp
  7.7578911e+08   1.3451382e-27   1.2655271e-36   8.5419534e-28   6.7531831e-40    8.4879665e-28      8.4879665e-28
  1.0034207e+09   1.4655929e-27   1.3788528e-36   9.2961959e-28   8.7977106e-40    9.2374420e-28      9.2374420e-28
  1.2978437e+09   1.5968341e-27   1.5023266e-36   1.0114852e-27   1.1283888e-39    1.0050924e-27      1.0050924e-27
  1.6786562e+09   1.7398277e-27   1.6368572e-36   1.1002773e-27   1.4266567e-39    1.0933233e-27      1.0933233e-27
  2.1712064e+09   1.8956262e-27   1.7834348e-36   1.1964976e-27   1.7699844e-39    1.1889355e-27      1.1889355e-27
  2.8082804e+09   2.0653761e-27   1.9431383e-36   1.3006581e-27   2.1156892e-39    1.2924377e-27      1.2924377e-27
  3.6322843e+09   2.2503269e-27   2.1171428e-36   1.4132719e-27   2.4744957e-39    1.4043398e-27      1.4043398e-27
  4.6980668e+09   2.4518396e-27   2.3067292e-36   1.5348405e-27   2.8819907e-39    1.5251400e-27      1.5251400e-27
  6.0765706e+09   2.6713975e-27   2.5132926e-36   1.6658358e-27   3.3589054e-39    1.6553074e-27      1.6553074e-27
  7.8595541e+09   2.9106164e-27   2.7383535e-36   1.8066764e-27   3.9273200e-39    1.7952579e-27      1.7952579e-27
  1.0165699e+10   3.1712569e-27   2.9835682e-36   1.9576955e-27   4.6126355e-39    1.9453224e-27      1.9453224e-27
  1.3148512e+10   3.4552373e-27   3.2507414e-36   2.1190982e-27   5.4466555e-39    2.1057051e-27      2.1057051e-27
  1.7006541e+10   3.7646476e-27   3.5418394e-36   2.2909069e-27   6.4700091e-39    2.2764279e-27      2.2764279e-27
  2.1996589e+10   4.1017650e-27   3.8590048e-36   2.4728892e-27   7.7351994e-39    2.4572601e-27      2.4572601e-27
  2.8450814e+10   4.4690708e-27   4.2045718e-36   2.6644676e-27   9.3089569e-39    2.6476276e-27      2.6476276e-27
  3.6798834e+10   4.8692681e-27   4.5810837e-36   2.8646052e-27   1.1277179e-38    2.8465003e-27      2.8465003e-27
  4.7596324e+10   5.3053023e-27   4.9913116e-36   3.0716663e-27   1.3750602e-38    3.0522527e-27      3.0522527e-27
  6.1562007e+10   5.7803827e-27   5.4382746e-36   3.2832496e-27   1.6872207e-38    3.2624988e-27      3.2624988e-27
  7.9625492e+10   6.2980056e-27   5.9252624e-36   3.4959971e-27   2.0826124e-38    3.4739016e-27      3.4739016e-27
  1.0298915e+11   6.8619808e-27   6.4558591e-36   3.7053874e-27   2.5850157e-38    3.6819686e-27      3.6819686e-27
  1.3320817e+11   7.4764589e-27   7.0339697e-36   3.9055358e-27   3.2251554e-38    3.8808520e-27      3.8808520e-27
  1.7229402e+11   8.1459624e-27   7.6638491e-36   4.0890372e-27   4.0427334e-38    4.0631936e-27      4.0631936e-27
  2.2284842e+11   8.8754188e-27   8.3501331e-36   4.2469155e-27   5.0890393e-38    4.2200741e-27      4.2200741e-27
  2.8823647e+11   9.6701967e-27   9.0978726e-36   4.3687705e-27   6.4303334e-38    4.3411590e-27      4.3411590e-27
  3.7281063e+11   1.0536146e-26   9.9125708e-36   4.4432397e-27   8.1521636e-38    4.4151575e-27      4.4151575e-27
  4.8220048e+11   1.1479639e-26   1.0800224e-35   4.4589034e-27   1.0364862e-37    4.4307223e-27      4.4307223e-27
  6.2368744e+11   1.0429298e-26   1.1767365e-35   4.4057222e-27   1.3210517e-37    4.3778771e-27      4.3778771e-27
  8.0668941e+11   8.8231669e-27   1.2821111e-35   4.2769791e-27   1.6871780e-37    4.2499477e-27      4.2499477e-27
  1.0433877e+12   7.4643829e-27   1.3969219e-35   4.0714701e-27   2.1582910e-37    4.0457375e-27      4.0457375e-27
  1.3495379e+12   6.3148542e-27   1.5220137e-35   3.7953705e-27   2.7643560e-37    3.7713830e-27      3.7713830e-27
  1.7455184e+12   5.3423550e-27   1.6583073e-35   3.4629328e-27   3.5435860e-37    3.4410463e-27      3.4410463e-27
  2.2576873e+12   4.5196225e-27   1.8068058e-35   3.0951906e-27   4.5445409e-37    3.0756283e-27      3.0756283e-27
  2.9201365e+12   3.8235923e-27   1.9686020e-35   2.7164342e-27   5.8286800e-37    2.6992658e-27      2.6992658e-27
  3.7769611e+12   3.2347520e-27   2.1448868e-35   2.3493433e-27   7.4734143e-37    2.3344949e-27      2.3344949e-27
  4.8851946e+12   2.7365943e-27   2.3369576e-35   2.0106921e-27   9.5757028e-37    1.9979841e-27      1.9979841e-27
  6.3186053e+12   2.3151537e-27   2.5462280e-35   1.7094822e-27   1.2256193e-36    1.6986779e-27      1.6986779e-27
  8.1726064e+12   1.9586158e-27   2.7742381e-35   1.4479047e-27   1.5663882e-36    1.4387536e-27      1.4387536e-27
  1.0570607e+13   1.6569853e-27   3.0226662e-35   1.2238530e-27   1.9981108e-36    1.2161180e-27      1.2161180e-27
  1.3672228e+13   1.4018065e-27   3.2933406e-35   1.0333130e-27   2.5428730e-36    1.0267823e-27      1.0267823e-27
  1.7683925e+13   1.1859257e-27   3.5882533e-35   8.7184003e-28   3.2271107e-36    8.6632983e-28      8.6632983e-28
  2.2872731e+13   1.0032910e-27   3.9095750e-35   7.3523103e-28   4.0820537e-36    7.3058422e-28      7.3058422e-28
  2.9584033e+13   8.4878233e-28   4.2596705e-35   6.1975420e-28   5.1440428e-36    6.1583723e-28      6.1583723e-28
  3.8264561e+13   7.1806829e-28   4.6411163e-35   5.2218551e-28   6.4547183e-36    5.1888520e-28      5.1888520e-28
  4.9492124e+13   6.0748445e-28   5.0567200e-35   4.3977318e-28   8.0610644e-36    4.3699373e-28      4.3699373e-28
  6.4014071e+13   5.1393073e-28   5.5095403e-35   3.7018093e-28   1.0015363e-35    3.6784132e-28      3.6784132e-28
  8.2797039e+13   4.3478445e-28   6.0029097e-35   3.1142968e-28   1.2374935e-35    3.0946140e-28      3.0946140e-28
  1.0709129e+14   3.6782684e-28   6.5404596e-35   2.6184444e-28   1.5201477e-35    2.6018955e-28      2.6018955e-28
  1.3851395e+14   3.1118083e-28   7.1261460e-35   2.2000808e-28   1.8558868e-35    2.1861760e-28      2.1861760e-28
  1.7915663e+14   2.6325841e-28   7.7642797e-35   1.8472177e-28   2.2506000e-35    1.8355431e-28      1.9348024e-28
  2.3172465e+14   2.2271613e-28   8.4595571e-35   1.5497147e-28   2.7075341e-35    1.5399205e-28      1.5429142e-28
  2.9971715e+14   1.8841743e-28   9.2170953e-35   1.2989946e-28   3.2227158e-35    1.2907850e-28      1.3171762e-28
  3.8765997e+14   1.5940080e-28   1.0042470e-34   1.0878027e-28   3.7804829e-35    1.0809279e-28      1.0359622e-28
  5.0140691e+14   1.3485278e-28   1.0941755e-34   9.1000330e-29   4.3603328e-35    9.0425232e-29      9.0075852e-29
  6.4852941e+14   1.1408521e-28   1.1921570e-34   7.6040719e-29   4.9508393e-35    7.5560175e-29      7.7040424e-29
  8.3882050e+14   9.6515875e-29   1.2989125e-34   6.3462593e-29   5.5488027e-35    6.3061552e-29      6.3185091e-29
  1.0849467e+15   8.1652253e-29   1.4152278e-34   5.2894843e-29   6.1598483e-35    5.2560598e-29      5.2269363e-29
  1.4032910e+15   6.9077655e-29   1.5419589e-34   4.4023648e-29   6.7852272e-35    4.3745477e-29      4.3958482e-29
  1.8150438e+15   5.8439569e-29   1.6800385e-34   3.6583646e-29   7.4255759e-35    3.6352504e-29      3.6247457e-29
  2.3476128e+15   4.9439768e-29   1.8304830e-34   3.0350468e-29   8.0815471e-35    3.0158726e-29      3.0119191e-29
  3.0364478e+15   4.1825952e-29   1.9943995e-34   2.5134410e-29   8.7563258e-35    2.4975642e-29      2.4973946e-29
  3.9274004e+15   3.5384679e-29   2.1729944e-34   2.0775092e-29   9.4480513e-35    2.0643882e-29      2.0656749e-29
  5.0797758e+15   2.9935373e-29   2.3675822e-34   1.7136933e-29   1.0154203e-34    1.7028724e-29      1.7037455e-29
  6.5702804e+15   2.5325270e-29   2.5795949e-34   1.4105339e-29   1.0871640e-34    1.4016298e-29      1.4019350e-29
  8.4981278e+15   2.1425132e-29   2.8105930e-34   1.1583467e-29   1.1596859e-34    1.1510372e-29      1.1508588e-29
  1.0991643e+16   1.8125622e-29   3.0622766e-34   9.4894893e-30   1.2323187e-34    9.4296356e-30      9.4289161e-30
  1.4216804e+16   1.5334243e-29   3.3364980e-34   7.7542883e-30   1.3042645e-34    7.7054086e-30      7.7050217e-30
  1.8388290e+16   1.2972741e-29   3.6352754e-34   6.3195079e-30   1.3746131e-34    6.2797032e-30      6.2795805e-30
  2.3783770e+16   1.0974915e-29   3.9608079e-34   5.1359007e-30   1.4423050e-34    5.1035834e-30      5.1037215e-30
  3.0762388e+16   9.2847581e-30   4.3154911e-34   4.1619310e-30   1.5060657e-34    4.1357756e-30      4.1358819e-30
  3.9788669e+16   7.8548882e-30   4.7019356e-34   3.3625948e-30   1.5644990e-34    3.3414972e-30      3.3415836e-30
  5.1463435e+16   6.6452210e-30   5.1229856e-34   2.7084245e-30   1.6161381e-34    2.6914665e-30      2.6914969e-30
  6.6563803e+16   5.6218447e-30   5.5817398e-34   2.1746425e-30   1.6594447e-34    2.1610624e-30      2.1610472e-30
  8.6094912e+16   4.7560702e-30   6.0815746e-34   1.7404436e-30   1.6928630e-34    1.7296110e-30      1.7296107e-30
  1.1135683e+17   4.0236267e-30   6.6261687e-34   1.3883888e-30   1.7149247e-34    1.3797834e-30      1.3797872e-30
  1.4403108e+17   3.4039807e-30   4.5054621e-34   1.1038909e-30   1.7243562e-34    1.0970846e-30      1.0970827e-30
  1.8629258e+17   2.8797614e-30   4.3856156e-34   8.7477648e-31   1.7201464e-34    8.6941778e-31      8.6941764e-31
  2.4095443e+17   2.2015079e-30   4.1958282e-34   6.9091235e-31   1.7016657e-34    6.8671388e-31      6.8671257e-31
  3.1165513e+17   1.6376458e-30   3.9604842e-34   5.4388824e-31   1.6687720e-34    5.4061574e-31      5.4061695e-31
  4.0310078e+17   1.2182032e-30   3.6981165e-34   4.2674673e-31   1.6218941e-34    4.2420995e-31      4.2420967e-31
  5.2137835e+17   9.0619041e-31   3.4226298e-34   3.3375233e-31   1.5620396e-34    3.3179738e-31      3.3179781e-31
  6.7436086e+17   6.7409204e-31   3.1442875e-34   2.6019433e-31   1.4907812e-34    2.5869723e-31      2.5869713e-31
  8.7223139e+17   5.0143996e-31   2.8705025e-34   2.0221895e-31   1.4101676e-34    2.0108030e-31      2.0108044e-31
  1.1281610e+18   3.7300845e-31   2.6064727e-34   1.5668670e-31   1.3225756e-34    1.5582717e-31      1.5582719e-31
  1.4591852e+18   2.7747152e-31   2.3556865e-34   1.2105100e-31   1.2305047e-34    1.2040758e-31      1.2040760e-31
  1.8873384e+18   2.0640402e-31   2.1203268e-34   9.3255162e-32   1.1363872e-34    9.2778120e-32      9.2778079e-32
  2.4411201e+18   1.5353871e-31   1.9015900e-34   7.1645597e-32   1.0424188e-34    7.1295841e-32      7.1295833e-32
  3.1573920e+18   1.1421355e-31   1.6999381e-34   5.4898751e-32   9.5044536e-35    5.4645746e-32      5.4645748e-32
  4.0838319e+18   8.4960559e-32   1.5152965e-34   4.1959983e-32   8.6190868e-35    4.1780000e-32      4.1779999e-32
  5.2821073e+18   6.3200003e-32   1.3472085e-34   3.1992599e-32   7.7785549e-35    3.1867302e-32      3.1867301e-32
  6.8319799e+18   4.7012878e-32   1.1949545e-34   2.4335667e-32   6.9897944e-35    2.4250966e-32      2.4250966e-32
  8.8366151e+18   3.4971687e-32   1.0576442e-34   1.8469280e-32   6.2567845e-35    1.8414408e-32      1.8414406e-32
  1.1429449e+19   2.6014550e-32   9.3428580e-35   1.3986119e-32   5.5811504e-35    1.3952902e-32      1.3952902e-32
  1.4783071e+19   1.9351563e-32   8.2383852e-35   1.0568303e-32   4.9627388e-35    1.0550574e-32      1.0550573e-32
  1.9120710e+19   1.4395137e-32   7.2525135e-35   7.9686660e-33   4.4001024e-35    7.9618041e-33      7.9618035e-33
  2.4731096e+19   1.0708177e-32   6.3749078e-35   5.9956929e-33   3.8908829e-35    5.9962662e-33      5.9962660e-33
  3.1987679e+19   7.9655408e-33   5.5956031e-35   4.5014809e-33   3.4321199e-35    4.5069624e-33      4.5069625e-33
  4.1373483e+19   5.9253636e-33   4.9051362e-35   3.3721611e-33   3.0204927e-35    3.3807106e-33      3.3807105e-33
  5.3513265e+19   4.4077275e-33   4.2946272e-35   2.5203224e-33   2.6525028e-35    2.5306175e-33      2.5306175e-33
  6.9215093e+19   3.2787966e-33   3.7558242e-35   1.8790453e-33   2.3246033e-35    1.8901516e-33      1.8901516e-33
  8.9524141e+19   2.4390136e-33   3.2811207e-35   1.3972278e-33   2.0332976e-35    1.4084992e-33      1.4084992e-33
  1.1579226e+20   1.8143203e-33   2.8635523e-35   1.0359394e-33   1.7752087e-35    1.0469427e-33      1.0469427e-33
  1.4976795e+20   1.3496268e-33   2.4967797e-35   7.6558795e-34   1.5471269e-35    7.7604498e-34      7.7604498e-34
  1.9371276e+20   1.0039531e-33   2.1750607e-35   5.6372511e-34   1.3460355e-35    5.7346986e-34      5.7346986e-34
  2.5055184e+20   7.4681523e-34   1.8932173e-35   4.1335485e-34   1.1691292e-35    4.2230098e-34      4.2230098e-34
  3.2406860e+20   5.5553689e-34   1.6465977e-35   3.0163252e-34   1.0138209e-35    3.0974931e-34      3.0974931e-34
  4.1915660e+20   4.1324979e-34   1.4310373e-35   2.1886754e-34   8.7774084e-36    2.2616206e-34      2.2616206e-34
  5.4214527e+20   3.0740603e-34   1.2428186e-35   1.5776053e-34   7.5873099e-36    1.6426467e-34      1.6426467e-34
  7.0122119e+20   2.2867154e-34   1.0786327e-35   1.1282174e-34   6.5483627e-36    1.1858274e-34      1.1858274e-34
  9.0697306e+20   1.7010295e-34   9.3554126e-36   7.9928586e-35   5.6429359e-36    8.5002323e-35      8.5002320e-35
  1.1730965e+21   1.2653527e-34   8.1094104e-36   5.5989594e-35   4.8551922e-36    6.0435826e-35      6.0435824e-35
  1.5173058e+21   9.4126375e-35   7.0253032e-36   3.8689540e-35   4.1709530e-36    4.2568637e-35      4.2568634e-35
  1.9625126e+21   7.0018221e-35   6.0827777e-36   2.6296607e-35   3.5775668e-36    2.9667377e-35      2.9667374e-35
  2.5383519e+21   5.2084777e-35   5.2639374e-36   1.7516752e-35   3.0637771e-36    2.0435053e-35      2.0435051e-35
  3.2831534e+21   3.8744543e-35   4.5530403e-36   1.1383834e-35   2.6195945e-36    1.3901755e-35      1.3901752e-35
  4.2464942e+21   2.8821082e-35   3.9362596e-36   7.1768667e-36   2.2361751e-36    9.3423073e-36      9.3423053e-36
  5.4924979e+21   2.1439271e-35   3.4014672e-36   4.3579013e-36   1.9057075e-36    6.2144408e-36      6.2144390e-36
  7.1041031e+21   1.5948130e-35   2.9380382e-36   2.5256322e-36   1.6213054e-36    4.1125771e-36      4.1125754e-36
  9.1885845e+21   1.1863409e-35   2.5366759e-36   1.3809992e-36   1.3769107e-36    2.7335571e-36      2.7335556e-36
  1.1884693e+22   8.8248887e-36   2.1892545e-36   7.0199635e-37   1.1672793e-36    1.8515930e-36      1.8515916e-36
  1.5371892e+22   6.5646107e-36   1.8886790e-36   3.2551182e-37   9.8768189e-37    1.2999286e-36      1.2999272e-36
  1.9882303e+22   4.8832472e-36   1.6287602e-36   1.3436544e-37   8.3402283e-37    9.5807489e-37      9.5807351e-37
  2.5716156e+22   3.6325236e-36   1.4041044e-36   4.7838818e-38   7.0283095e-37    7.4239198e-37      7.4239053e-37
  3.3261774e+22   2.7021421e-36   1.2100148e-36   1.4100271e-38   5.9096720e-37    5.9827230e-37      5.9827073e-37
  4.3021422e+22   2.0100549e-36   1.0424049e-36   3.2613040e-39   4.9570928e-37    4.9332486e-37      4.9332312e-37
  5.5644741e+22   1.4952288e-36   9.9408150e-37   5.5187771e-40   4.1477114e-37    4.1061288e-37      4.1061093e-37
  7.1971985e+22   1.1122628e-36   8.2758247e-37   6.2311385e-41   3.4610163e-37    3.4223613e-37      3.4223396e-37
  9.3089959e+22   8.2738404e-37   6.8878955e-37   4.1564645e-42   2.8787589e-37    2.8461332e-37      2.8461091e-37
  1.2040436e+23   6.1546998e-37   5.7311795e-37   1.3940765e-43   2.3879118e-37    2.3608161e-37      2.3607895e-37
  1.5573333e+23   4.5783250e-37   4.7673790e-37   1.8980882e-45   1.9731783e-37    1.9507875e-37      1.9507582e-37
  2.0142850e+23   3.4056997e-37   3.9645087e-37   7.9035564e-48   1.6250180e-37    1.6065780e-37      1.6065460e-37
  2.6053152e+23   2.5334136e-37   3.2958596e-37   6.9428121e-51   1.3331024e-37    1.3179749e-37      1.3179401e-37
  3.3697651e+23   1.8845420e-37   2.7391323e-37   7.9584898e-55   1.0893314e-37    1.0769701e-37      1.0769324e-37
  4.3585195e+23   1.4018630e-37   2.2757126e-37   6.4353993e-60   8.8600526e-38    8.7595123e-38      8.7591087e-38
  5.6373935e+23   1.0428103e-37   1.8900651e-37   1.6712893e-66   7.1824137e-38    7.1009105e-38      7.1004798e-38
  7.2915139e+23   7.7572009e-38   1.5692263e-37   5.0691422e-75   5.8011843e-38    5.7353548e-38      5.7348979e-38
  9.4309852e+23   5.7703849e-38   1.3023812e-37   4.8643679e-86   4.6729616e-38    4.6199347e-38      4.6194524e-38
  1.2198219e+24   4.2924428e-38   1.0805087e-37  2.7284024e-100   3.7492472e-38    3.7067022e-38      3.7061963e-38
  1.5777413e+24   3.1930392e-38   8.9608576e-38  1.0068568e-118   2.9985991e-38    2.9645722e-38      2.9640446e-38
  2.0406811e+24   2.3752208e-38   7.4283980e-38  1.4495577e-142   2.3873094e-38    2.3602191e-38      2.3596728e-38
  2.6394564e+24   1.7668665e-38   6.1554208e-38  2.1072407e-173   1.8944753e-38    1.8729775e-38      1.8724151e-38
  3.4139241e+24   1.3143271e-38   5.0983491e-38  2.7399328e-213   1.4943358e-38    1.4773786e-38      1.4768047e-38
  4.4156355e+24   9.7769458e-39   4.2208740e-38  7.0526109e-265   1.1749959e-38    1.1616625e-38      1.1610804e-38
  5.7112685e+24   7.2728218e-39   3.4927491e-38   0.0000000e+00   9.1733958e-39    9.0692997e-39      9.0634540e-39
  7.3870652e+24   5.4100675e-39   2.8887847e-38   0.0000000e+00   7.1349285e-39    7.0539642e-39      7.0481340e-39
  9.5545732e+24   4.0244119e-39   2.3880075e-38   0.0000000e+00   5.5072706e-39    5.4447763e-39      5.4390234e-39
  1.2358070e+25   2.9936578e-39   1.9729595e-38   0.0000000e+00   4.2278660e-39    4.1798899e-39      4.1742618e-39
  1.5984167e+25   2.2269060e-39   1.6291125e-38   0.0000000e+00   3.2211689e-39    3.1846164e-39      3.1791693e-39
  2.0674231e+25   1.6565389e-39   1.3443798e-38   0.0000000e+00   2.4362174e-39    2.4085722e-39      2.4033558e-39
  2.6740451e+25   1.2322572e-39   1.1087089e-38   0.0000000e+00   1.8297720e-39    1.8090085e-39      1.8040637e-39
  3.4586617e+25   9.1664486e-40   9.1374137e-39   0.0000000e+00   1.3609939e-39    1.3455499e-39      1.3409231e-39
  4.4735000e+25   6.8186884e-40   7.5252981e-39   0.0000000e+00   1.0051733e-39    9.9376699e-40      9.8948227e-40
  5.7861115e+25   5.0722492e-40   6.1930120e-39   0.0000000e+00   7.3435827e-40    7.2602507e-40      7.2211280e-40
  7.4838687e+25   3.7731174e-40   5.0926007e-39   0.0000000e+00   5.3270233e-40    5.2665743e-40      5.2312209e-40
  9.6797807e+25   2.8067263e-40   4.1842431e-39   0.0000000e+00   3.8152546e-40    3.7719606e-40      3.7405198e-40
  1.2520016e+26   2.0878524e-40   3.4348840e-39   0.0000000e+00   2.7182208e-40    2.6873755e-40      2.6596496e-40
  1.6193631e+26   1.5531004e-40   2.8170944e-39   0.0000000e+00   1.9068636e-40    1.8852253e-40      1.8612275e-40
  2.0945156e+26   1.1553120e-40   2.3081226e-39   0.0000000e+00   1.3333647e-40    1.3182342e-40      1.2975956e-40
  2.7090870e+26   8.5940725e-41   1.8891042e-39   0.0000000e+00   9.1652722e-41    9.0612683e-41      8.8873291e-41
  3.5039856e+26   6.3929123e-41   1.5444042e-39   0.0000000e+00   6.2919441e-41    6.2205457e-41      6.0745950e-41
  4.5321228e+26   4.7555252e-41   1.2610701e-39   0.0000000e+00   4.2394905e-41    4.1913824e-41      4.0715551e-41
  5.8619354e+26   3.5375145e-41   1.0283759e-39   0.0000000e+00   2.8551916e-41    2.8227921e-41      2.7247646e-41
  7.5819407e+26   2.6314672e-41   8.3744414e-40   0.0000000e+00   1.8856717e-41    1.8642739e-41      1.7858787e-41
  9.8066289e+26   1.9574817e-41   6.8093052e-40   0.0000000e+00   1.2449049e-41    1.2307782e-41      1.1683054e-41
  1.2684084e+27   1.4561209e-41   5.5276238e-40   0.0000000e+00   8.0385897e-42    7.9473710e-42      7.4620195e-42
  1.6405840e+27   1.0831714e-41   4.4792116e-40   0.0000000e+00   5.1819696e-42    5.1231667e-42      4.7479859e-42
  2.1219631e+27   8.0574369e-42   3.6226179e-40   0.0000000e+00   3.2590557e-42    3.2220732e-42      2.9401088e-42
  2.7445881e+27   5.9937228e-42   2.9236268e-40   0.0000000e+00   2.0351366e-42    2.0120427e-42      1.8024079e-42
  3.5499034e+27   4.4585782e-42   2.3540114e-40   0.0000000e+00   1.2332008e-42    1.2192069e-42      1.0685518e-42
  4.5915138e+27   3.3166231e-42   1.8905013e-40   0.0000000e+00   7.3539198e-43    7.2704705e-43      6.2094061e-43
  5.9387528e+27   2.4671518e-42   1.5139249e-40   0.0000000e+00   4.2154364e-43    4.1676013e-43      3.4524685e-43
  7.6812979e+27   1.8352516e-42   1.2084992e-40   0.0000000e+00   2.3385936e-43    2.3120562e-43      1.8478636e-43
